1701619620.8824077,22.0,9.0,21.0,22.0,2.0,2.0,5.0,7.0
1701619620.8824077,35.0,42.0,-16.0,-6.0,1.0,1.0,12.0,21.0
1701619620.8824077,-22.0,-30.0,13.0,0.0,-4.0,-3.0,-4.0,-13.0
1701619620.8824077,9.0,44.0,-8.0,7.0,-1.0,-3.0,-4.0,2.0
1701619620.892429,-2.0,21.0,-2.0,-7.0,-1.0,-4.0,2.0,2.0
1701619620.892429,-26.0,-46.0,0.0,3.0,1.0,3.0,-3.0,2.0
1701619620.892429,40.0,41.0,-4.0,-1.0,1.0,-1.0,-6.0,-2.0
1701619620.892429,-9.0,-25.0,-19.0,-8.0,-2.0,-3.0,-4.0,-6.0
1701619620.9223995,51.0,-53.0,-22.0,-10.0,1.0,-1.0,8.0,5.0
1701619620.9223995,20.0,34.0,9.0,2.0,-3.0,-2.0,-2.0,14.0
1701619620.9223995,-10.0,0.0,-9.0,-8.0,-2.0,0.0,-2.0,-9.0
1701619620.9223995,-5.0,-25.0,25.0,6.0,-1.0,1.0,2.0,-5.0
1701619620.9426477,-13.0,17.0,-13.0,-7.0,-2.0,-3.0,-15.0,-21.0
1701619620.9426477,17.0,-31.0,4.0,-1.0,-4.0,-6.0,-12.0,-30.0
1701619620.9426477,8.0,18.0,7.0,1.0,2.0,2.0,20.0,57.0
1701619620.9426477,27.0,3.0,-4.0,4.0,-2.0,-2.0,-4.0,7.0
1701619620.9625869,-63.0,1.0,-8.0,-12.0,-1.0,-1.0,-28.0,-85.0
1701619620.9625869,-22.0,-28.0,0.0,0.0,-3.0,-2.0,-1.0,2.0
1701619620.9625869,15.0,1.0,-6.0,-9.0,0.0,-1.0,-4.0,-14.0
1701619620.9625869,26.0,7.0,8.0,9.0,5.0,2.0,13.0,31.0
1701619620.9823906,-33.0,-10.0,-15.0,-8.0,-4.0,-1.0,8.0,21.0
1701619620.9823906,15.0,1.0,16.0,9.0,-2.0,5.0,8.0,-3.0
1701619620.9823906,6.0,-8.0,-14.0,-4.0,-8.0,-11.0,-2.0,-6.0
1701619620.9823906,-37.0,2.0,4.0,-14.0,0.0,0.0,-11.0,-5.0
1701619621.0027122,-8.0,0.0,16.0,2.0,-1.0,-2.0,1.0,-1.0
1701619621.0027122,0.0,9.0,-31.0,-1.0,-3.0,-7.0,-3.0,7.0
1701619621.0027122,-13.0,-28.0,8.0,5.0,1.0,2.0,-9.0,0.0
1701619621.0027122,-1.0,27.0,11.0,4.0,0.0,-4.0,-1.0,-18.0
1701619621.0126805,10.0,13.0,-3.0,1.0,0.0,-2.0,-4.0,8.0
1701619621.0126805,3.0,0.0,-7.0,-5.0,-2.0,2.0,9.0,14.0
1701619621.022649,-31.0,-15.0,-5.0,-4.0,1.0,3.0,15.0,-13.0
1701619621.022649,9.0,3.0,2.0,-3.0,-7.0,-6.0,-25.0,-17.0
1701619621.052394,5.0,15.0,6.0,4.0,2.0,6.0,12.0,21.0
1701619621.052394,-13.0,-8.0,5.0,-13.0,-1.0,0.0,3.0,3.0
1701619621.0623913,-13.0,-9.0,0.0,0.0,1.0,-2.0,-7.0,-15.0
1701619621.0623913,4.0,11.0,15.0,7.0,1.0,0.0,6.0,1.0
1701619621.0623913,0.0,-8.0,-7.0,2.0,1.0,0.0,1.0,11.0
1701619621.0623913,-13.0,-17.0,19.0,17.0,-4.0,-9.0,-7.0,-6.0
1701619621.0623913,1.0,16.0,-31.0,-30.0,-5.0,-1.0,-10.0,-10.0
1701619621.0623913,4.0,-7.0,4.0,11.0,0.0,-1.0,5.0,1.0
1701619621.0724258,-5.0,-12.0,-18.0,-8.0,0.0,-1.0,3.0,5.0
1701619621.0724258,3.0,2.0,14.0,-2.0,-4.0,-3.0,-11.0,-5.0
1701619621.0923903,-4.0,-20.0,-6.0,-9.0,-2.0,-2.0,4.0,0.0
1701619621.0923903,-1.0,-10.0,-5.0,3.0,-2.0,-1.0,0.0,0.0
1701619621.0923903,-12.0,-15.0,-23.0,-3.0,-2.0,-2.0,-7.0,-1.0
1701619621.0923903,4.0,21.0,-2.0,-3.0,7.0,4.0,0.0,3.0
1701619621.0923903,-3.0,-5.0,7.0,-13.0,-3.0,-2.0,-5.0,-2.0
1701619621.0923903,-3.0,-2.0,36.0,32.0,-5.0,-4.0,-3.0,-6.0
1701619621.1227624,4.0,7.0,-5.0,-13.0,-5.0,-1.0,-1.0,1.0
1701619621.1227624,-8.0,-7.0,-10.0,-1.0,1.0,1.0,4.0,3.0
1701619621.1227624,-1.0,2.0,-7.0,4.0,2.0,3.0,-1.0,-2.0
1701619621.1227624,17.0,-20.0,-17.0,-11.0,3.0,1.0,-1.0,-4.0
1701619621.13269,-33.0,0.0,14.0,9.0,1.0,1.0,1.0,1.0
1701619621.13269,-18.0,-35.0,-24.0,-12.0,-3.0,-4.0,-2.0,-4.0
1701619621.1523905,1.0,19.0,16.0,13.0,3.0,1.0,-2.0,-3.0
1701619621.1523905,-9.0,14.0,-23.0,-16.0,-10.0,-5.0,0.0,-4.0
1701619621.1523905,14.0,-7.0,-20.0,-7.0,0.0,1.0,-1.0,2.0
1701619621.1523905,4.0,12.0,8.0,-7.0,-1.0,1.0,2.0,0.0
1701619621.1523905,-1.0,9.0,9.0,8.0,2.0,2.0,2.0,1.0
1701619621.1523905,22.0,52.0,10.0,-1.0,0.0,0.0,1.0,5.0
1701619621.1827214,2.0,-17.0,-1.0,2.0,-2.0,-4.0,1.0,0.0
1701619621.1827214,7.0,44.0,-9.0,-7.0,-5.0,-5.0,-11.0,-1.0
1701619621.1827214,-6.0,10.0,2.0,7.0,-5.0,-3.0,-3.0,-5.0
1701619621.1827214,9.0,-7.0,-11.0,-2.0,6.0,2.0,2.0,-13.0
1701619621.1926725,-9.0,-11.0,14.0,-4.0,-4.0,-1.0,-1.0,-1.0
1701619621.1926725,33.0,75.0,19.0,3.0,4.0,-1.0,8.0,40.0
1701619621.2026389,45.0,-13.0,7.0,8.0,-2.0,-1.0,17.0,-14.0
1701619621.2026389,-62.0,-56.0,-33.0,-10.0,-3.0,-4.0,-17.0,-18.0
1701619621.2458327,-50.0,30.0,14.0,0.0,0.0,1.0,2.0,-6.0
1701619621.2458327,-7.0,-40.0,7.0,7.0,-5.0,-5.0,-3.0,-9.0
1701619621.2458327,-10.0,-14.0,-9.0,6.0,2.0,1.0,3.0,33.0
1701619621.2458327,34.0,-25.0,10.0,-7.0,-2.0,3.0,9.0,18.0
1701619621.2458327,-17.0,-43.0,-17.0,-9.0,-9.0,-8.0,-17.0,-47.0
1701619621.2458327,-6.0,-14.0,2.0,2.0,-3.0,1.0,2.0,-1.0
1701619621.2458327,36.0,2.0,5.0,-2.0,1.0,-3.0,-7.0,-8.0
1701619621.2458327,8.0,16.0,-2.0,-7.0,-2.0,1.0,10.0,36.0
1701619621.255165,35.0,21.0,4.0,6.0,1.0,1.0,3.0,7.0
1701619621.255165,-32.0,-18.0,-24.0,-20.0,-1.0,8.0,2.0,-1.0
1701619621.2851627,-17.0,-1.0,-5.0,-3.0,-5.0,-5.0,-7.0,2.0
1701619621.2851627,11.0,0.0,18.0,3.0,-1.0,-5.0,-6.0,-9.0
1701619621.2851627,-44.0,-13.0,-15.0,1.0,-2.0,-1.0,-7.0,-6.0
1701619621.2851627,-8.0,-7.0,3.0,-2.0,-1.0,-2.0,-5.0,-31.0
1701619621.2851627,-36.0,-9.0,-12.0,-3.0,-1.0,3.0,0.0,-9.0
1701619621.2851627,-3.0,16.0,7.0,-3.0,-1.0,1.0,10.0,1.0
1701619621.295196,30.0,9.0,8.0,4.0,0.0,-1.0,-7.0,13.0
1701619621.295196,10.0,-7.0,0.0,0.0,0.0,-2.0,1.0,-4.0
1701619621.295196,-27.0,8.0,5.0,2.0,0.0,-1.0,-5.0,2.0
1701619621.295196,-2.0,3.0,-4.0,-4.0,0.0,-1.0,-3.0,-10.0
1701619621.3254993,28.0,-5.0,-5.0,-10.0,-1.0,-2.0,4.0,13.0
1701619621.3254993,-3.0,9.0,-7.0,-2.0,2.0,1.0,5.0,23.0
1701619621.3254993,16.0,-1.0,5.0,7.0,-7.0,-8.0,-13.0,-39.0
1701619621.3254993,-15.0,-1.0,-18.0,-23.0,-4.0,-1.0,-3.0,-9.0
1701619621.3355758,0.0,15.0,12.0,1.0,9.0,7.0,7.0,9.0
1701619621.3355758,-16.0,-17.0,15.0,16.0,-11.0,-6.0,1.0,17.0
1701619621.3355758,-6.0,-25.0,-7.0,-1.0,4.0,3.0,-2.0,-3.0
1701619621.3355758,5.0,7.0,0.0,-4.0,-5.0,-2.0,-5.0,-10.0
1701619621.3555772,6.0,-20.0,-3.0,-2.0,1.0,-3.0,-3.0,-2.0
1701619621.3555772,3.0,2.0,-2.0,-12.0,3.0,0.0,-1.0,0.0
1701619621.3555772,16.0,4.0,-4.0,-4.0,0.0,1.0,-1.0,8.0
1701619621.3555772,35.0,20.0,8.0,11.0,3.0,3.0,7.0,8.0
1701619621.3855028,-75.0,-6.0,-15.0,-1.0,-1.0,-2.0,-4.0,-10.0
1701619621.3855028,-1.0,-31.0,2.0,-3.0,-3.0,-5.0,-15.0,-13.0
1701619621.3855028,-13.0,5.0,-12.0,-3.0,-2.0,-1.0,-8.0,-14.0
1701619621.3855028,7.0,11.0,14.0,2.0,3.0,3.0,3.0,6.0
1701619621.3955834,43.0,72.0,32.0,9.0,-4.0,1.0,8.0,10.0
1701619621.3955834,-7.0,-66.0,-25.0,-2.0,-2.0,-2.0,1.0,-11.0
1701619621.3955834,-14.0,-6.0,10.0,-11.0,-3.0,-5.0,-7.0,-3.0
1701619621.3955834,-23.0,-26.0,-50.0,0.0,6.0,3.0,-2.0,0.0
1701619621.4351623,21.0,11.0,-8.0,-3.0,-9.0,-4.0,0.0,1.0
1701619621.4351623,-2.0,19.0,-2.0,-5.0,-3.0,-1.0,-2.0,-10.0
1701619621.4351623,13.0,-1.0,6.0,0.0,-4.0,-3.0,3.0,14.0
1701619621.4351623,-9.0,3.0,40.0,22.0,-6.0,-4.0,-3.0,-3.0
1701619621.4460905,20.0,-13.0,6.0,4.0,15.0,11.0,5.0,5.0
1701619621.4460905,-8.0,22.0,0.0,9.0,36.0,14.0,6.0,-3.0
1701619621.4460905,-6.0,-8.0,-2.0,0.0,3.0,-2.0,0.0,0.0
1701619621.4460905,-5.0,-2.0,-4.0,-6.0,-9.0,-6.0,-5.0,-6.0
1701619621.4591258,1.0,-3.0,-13.0,-12.0,-19.0,-12.0,-9.0,-2.0
1701619621.4591258,12.0,12.0,-1.0,-6.0,-17.0,-7.0,-2.0,-1.0
1701619621.4601269,11.0,21.0,-1.0,-6.0,-1.0,0.0,2.0,5.0
1701619621.4601269,-38.0,-62.0,-7.0,2.0,2.0,2.0,0.0,-9.0
1701619621.4829416,16.0,29.0,17.0,1.0,-2.0,0.0,5.0,9.0
1701619621.4829416,2.0,-1.0,12.0,4.0,4.0,1.0,-4.0,-4.0
1701619621.4829416,5.0,12.0,-3.0,1.0,-5.0,-2.0,3.0,8.0
1701619621.4829416,24.0,-1.0,-18.0,-11.0,-2.0,2.0,1.0,-2.0
1701619621.5059633,-18.0,-56.0,-12.0,1.0,2.0,-4.0,-9.0,-8.0
1701619621.5059633,-32.0,-2.0,12.0,3.0,-4.0,-3.0,-2.0,-5.0
1701619621.5069478,-11.0,7.0,7.0,6.0,-7.0,-1.0,0.0,-1.0
1701619621.5079541,12.0,24.0,-4.0,-9.0,4.0,0.0,0.0,-1.0
1701619621.5197008,-6.0,-8.0,9.0,8.0,-8.0,-3.0,1.0,0.0
1701619621.5197008,18.0,10.0,-5.0,7.0,10.0,5.0,-2.0,0.0
1701619621.5207174,-8.0,-5.0,0.0,7.0,28.0,10.0,4.0,0.0
1701619621.5207174,-15.0,9.0,4.0,7.0,6.0,5.0,2.0,0.0
1701619621.5512865,5.0,-25.0,-8.0,-7.0,-4.0,-6.0,-4.0,-2.0
1701619621.5512865,9.0,11.0,11.0,-3.0,-25.0,-10.0,-3.0,-3.0
1701619621.5512865,-12.0,-43.0,-15.0,-12.0,-10.0,0.0,0.0,-1.0
1701619621.5512865,-2.0,9.0,-3.0,-16.0,-3.0,-4.0,-4.0,0.0
1701619621.5656087,3.0,3.0,7.0,1.0,1.0,0.0,-2.0,-2.0
1701619621.5656087,-30.0,13.0,-6.0,-2.0,-3.0,-1.0,3.0,-1.0
1701619621.5656087,4.0,-35.0,11.0,11.0,2.0,-1.0,-2.0,-3.0
1701619621.5656087,2.0,19.0,0.0,4.0,4.0,2.0,2.0,6.0
1701619621.578858,30.0,11.0,-17.0,-9.0,-10.0,-6.0,-7.0,-1.0
1701619621.578858,-23.0,-3.0,22.0,22.0,6.0,-1.0,-1.0,-5.0
1701619621.580857,-1.0,-46.0,-30.0,-14.0,-3.0,0.0,1.0,-3.0
1701619621.580857,-16.0,-19.0,0.0,-18.0,-12.0,-6.0,-6.0,-2.0
1701619621.6031291,-6.0,-12.0,-14.0,-1.0,1.0,-4.0,-2.0,-3.0
1701619621.6031291,21.0,6.0,-10.0,-4.0,16.0,6.0,2.0,2.0
1701619621.6031291,-18.0,-4.0,78.0,27.0,-20.0,-9.0,-8.0,-6.0
1701619621.6031291,5.0,-16.0,-14.0,6.0,5.0,2.0,0.0,0.0
1701619621.6251633,-15.0,24.0,7.0,-2.0,12.0,5.0,3.0,0.0
1701619621.6251633,53.0,4.0,-12.0,-7.0,-3.0,-4.0,-2.0,3.0
1701619621.6259274,3.0,85.0,-19.0,-4.0,-1.0,-1.0,2.0,1.0
1701619621.6259274,-28.0,-33.0,12.0,13.0,-7.0,-7.0,-2.0,-2.0
1701619621.6382794,8.0,4.0,4.0,-5.0,10.0,0.0,-2.0,-5.0
1701619621.6382794,-5.0,-19.0,-19.0,3.0,-1.0,2.0,4.0,2.0
1701619621.6382794,15.0,32.0,-14.0,-35.0,2.0,0.0,-1.0,-1.0
1701619621.6382794,24.0,19.0,-11.0,5.0,-11.0,-7.0,-6.0,0.0
1701619621.65863,-33.0,-9.0,11.0,-4.0,-5.0,-5.0,-1.0,-6.0
1701619621.65863,8.0,5.0,17.0,15.0,-8.0,-3.0,-2.0,-1.0
1701619621.65863,19.0,3.0,-11.0,8.0,3.0,0.0,1.0,4.0
1701619621.65863,2.0,7.0,21.0,9.0,8.0,3.0,0.0,-4.0
1701619621.6785593,7.0,-20.0,-32.0,-13.0,-6.0,-3.0,-1.0,-5.0
1701619621.6785593,-25.0,6.0,30.0,-5.0,-2.0,0.0,-2.0,-1.0
1701619621.6785593,-8.0,25.0,-8.0,8.0,0.0,2.0,2.0,0.0
1701619621.6785593,4.0,31.0,-47.0,-35.0,-5.0,-2.0,-3.0,-4.0
1701619621.7082844,34.0,8.0,37.0,15.0,3.0,1.0,0.0,5.0
1701619621.7082844,-32.0,-60.0,-17.0,1.0,3.0,-1.0,0.0,-8.0
1701619621.7082844,21.0,27.0,4.0,5.0,9.0,-1.0,3.0,5.0
1701619621.7082844,19.0,17.0,46.0,37.0,-2.0,3.0,3.0,1.0
1701619621.7182796,-23.0,24.0,19.0,2.0,-5.0,0.0,-3.0,-2.0
1701619621.7182796,-10.0,5.0,-30.0,-14.0,-5.0,-3.0,-1.0,-1.0
1701619621.7182796,-9.0,-37.0,-6.0,0.0,5.0,0.0,-1.0,0.0
1701619621.7182796,8.0,-3.0,-8.0,1.0,6.0,1.0,1.0,1.0
1701619621.7384934,15.0,18.0,19.0,8.0,-7.0,-1.0,3.0,1.0
1701619621.7384934,-21.0,-11.0,-23.0,-15.0,-4.0,-2.0,-1.0,0.0
1701619621.7384934,-4.0,-14.0,-3.0,-2.0,-2.0,-4.0,-5.0,-5.0
1701619621.7384934,-7.0,-15.0,-10.0,-11.0,-1.0,1.0,-1.0,-2.0
1701619621.7739775,0.0,-23.0,17.0,9.0,5.0,3.0,-1.0,-1.0
1701619621.7739775,1.0,-7.0,-21.0,-9.0,-7.0,0.0,-4.0,-3.0
1701619621.7789733,-5.0,-8.0,19.0,2.0,-6.0,-1.0,1.0,-1.0
1701619621.7789733,-8.0,-3.0,-12.0,11.0,5.0,-3.0,-5.0,-5.0
1701619621.7819724,2.0,-24.0,2.0,-6.0,5.0,5.0,8.0,11.0
1701619621.7819724,35.0,18.0,4.0,-5.0,0.0,-3.0,-3.0,-1.0
1701619621.782627,-13.0,-15.0,-31.0,-18.0,-5.0,-2.0,-3.0,-2.0
1701619621.782627,-14.0,11.0,27.0,9.0,8.0,2.0,1.0,-3.0
1701619621.798496,-2.0,-8.0,-48.0,-21.0,-6.0,-2.0,1.0,-2.0
1701619621.798496,9.0,29.0,26.0,28.0,-1.0,-4.0,-2.0,-1.0
1701619621.798496,-3.0,2.0,34.0,-16.0,-7.0,-3.0,-4.0,1.0
1701619621.798496,-9.0,1.0,-25.0,-2.0,-3.0,-5.0,-3.0,-1.0
1701619621.8282,-3.0,5.0,-27.0,-3.0,8.0,5.0,-2.0,-4.0
1701619621.8282,9.0,-18.0,10.0,-15.0,-2.0,2.0,0.0,1.0
1701619621.8282,-3.0,11.0,18.0,31.0,8.0,3.0,-2.0,-4.0
1701619621.838199,-7.0,-15.0,-2.0,-18.0,-7.0,-5.0,0.0,1.0
1701619621.838199,3.0,2.0,-4.0,-1.0,-1.0,-3.0,-1.0,2.0
1701619621.838199,3.0,11.0,10.0,8.0,-4.0,-1.0,-2.0,-2.0
1701619621.838199,23.0,13.0,-5.0,-4.0,0.0,2.0,6.0,9.0
1701619621.838199,-19.0,19.0,1.0,-26.0,-4.0,0.0,0.0,-4.0
1701619621.8586173,-10.0,-39.0,-19.0,17.0,0.0,0.0,0.0,-3.0
1701619621.8586173,2.0,-1.0,27.0,-4.0,-8.0,-4.0,-3.0,-1.0
1701619621.8586173,-19.0,-12.0,-19.0,2.0,5.0,2.0,-2.0,-3.0
1701619621.8586173,22.0,14.0,1.0,-7.0,1.0,-2.0,-4.0,1.0
1701619621.878203,7.0,15.0,-7.0,-17.0,-3.0,1.0,1.0,3.0
1701619621.878203,14.0,16.0,-5.0,-1.0,-2.0,-3.0,-3.0,-3.0
1701619621.8882012,-39.0,-22.0,31.0,20.0,5.0,0.0,0.0,-5.0
1701619621.8882012,5.0,-13.0,-1.0,16.0,-7.0,-3.0,1.0,1.0
1701619621.8982003,-13.0,-11.0,-4.0,-18.0,1.0,-2.0,-6.0,-6.0
1701619621.8982003,12.0,12.0,-9.0,-15.0,1.0,2.0,2.0,2.0
1701619621.8982003,24.0,6.0,0.0,0.0,1.0,-1.0,-1.0,-2.0
1701619621.8982003,-3.0,-24.0,-9.0,-12.0,-3.0,-1.0,-3.0,-3.0
1701619621.9281986,-19.0,2.0,15.0,5.0,-5.0,-3.0,-2.0,-1.0
1701619621.9281986,12.0,17.0,-24.0,-4.0,6.0,0.0,1.0,0.0
1701619621.9281986,22.0,-19.0,-9.0,-17.0,-9.0,-4.0,-3.0,-4.0
1701619621.9281986,-49.0,-9.0,37.0,30.0,12.0,2.0,0.0,-5.0
1701619621.9384766,23.0,-10.0,-21.0,-20.0,-16.0,-4.0,-1.0,-1.0
1701619621.9384766,12.0,43.0,-4.0,-7.0,2.0,1.0,1.0,2.0
1701619621.9384766,-9.0,-20.0,-18.0,-9.0,-4.0,-6.0,-3.0,-3.0
1701619621.9384766,23.0,-25.0,-1.0,-2.0,4.0,1.0,0.0,3.0
1701619621.9586477,-9.0,27.0,18.0,11.0,0.0,-3.0,-2.0,-4.0
1701619621.9586477,-15.0,-3.0,1.0,14.0,-1.0,0.0,-2.0,-4.0
1701619621.9586477,-9.0,10.0,-5.0,-12.0,-9.0,-4.0,-4.0,1.0
1701619621.9586477,8.0,-2.0,-1.0,1.0,-8.0,-5.0,-1.0,-1.0
1701619621.9964585,7.0,1.0,-17.0,-1.0,15.0,2.0,1.0,4.0
1701619621.9964585,1.0,-21.0,11.0,-2.0,-2.0,3.0,1.0,-1.0
1701619621.9964585,21.0,35.0,9.0,18.0,9.0,2.0,2.0,4.0
1701619621.9964585,-16.0,-4.0,-43.0,-35.0,-12.0,-3.0,-3.0,-7.0
1701619621.9984775,-28.0,17.0,-17.0,3.0,-3.0,-5.0,-4.0,-3.0
1701619621.9984775,-24.0,-32.0,17.0,4.0,5.0,0.0,1.0,-1.0
1701619622.0068884,9.0,-20.0,-18.0,-3.0,0.0,2.0,1.0,2.0
1701619622.0068884,1.0,43.0,20.0,6.0,3.0,0.0,-1.0,-4.0
1701619622.022895,5.0,-32.0,35.0,16.0,-1.0,0.0,-2.0,-2.0
1701619622.022895,19.0,28.0,-34.0,-21.0,-2.0,0.0,0.0,2.0
1701619622.022895,38.0,1.0,13.0,0.0,-9.0,-5.0,-5.0,-2.0
1701619622.022895,-20.0,14.0,-3.0,-3.0,0.0,0.0,-1.0,-3.0
1701619622.0679986,32.0,7.0,2.0,9.0,8.0,4.0,1.0,-1.0
1701619622.0689976,-73.0,-32.0,34.0,10.0,3.0,-1.0,-1.0,-3.0
1701619622.0699978,7.0,-2.0,-22.0,-11.0,-1.0,-1.0,-1.0,-3.0
1701619622.0699978,2.0,-35.0,-45.0,-14.0,-16.0,-5.0,-1.0,1.0
1701619622.075015,-2.0,-20.0,3.0,-12.0,-9.0,-2.0,-2.0,-3.0
1701619622.075015,-7.0,-46.0,-11.0,-6.0,-4.0,-2.0,-2.0,-2.0
1701619622.0761347,-13.0,-10.0,-18.0,-14.0,0.0,0.0,-1.0,-2.0
1701619622.0761347,-4.0,-11.0,13.0,16.0,7.0,1.0,0.0,0.0
1701619622.0904703,-12.0,-7.0,7.0,11.0,1.0,-2.0,-1.0,-2.0
1701619622.0904703,22.0,5.0,-15.0,-2.0,-1.0,1.0,3.0,6.0
1701619622.0904703,-12.0,-2.0,5.0,-9.0,-7.0,-4.0,-5.0,-6.0
1701619622.0904703,5.0,3.0,24.0,20.0,10.0,5.0,4.0,2.0
1701619622.1136544,2.0,-16.0,-10.0,-27.0,-6.0,-2.0,-3.0,-1.0
1701619622.1136544,7.0,1.0,-39.0,-11.0,-4.0,-5.0,-6.0,-7.0
1701619622.1136544,-29.0,-8.0,7.0,35.0,-5.0,-2.0,-2.0,-4.0
1701619622.1136544,15.0,16.0,18.0,-2.0,-4.0,-2.0,-1.0,1.0
1701619622.1187718,-1.0,1.0,7.0,17.0,0.0,-3.0,0.0,-4.0
1701619622.1187718,-6.0,17.0,7.0,-21.0,-3.0,-2.0,-2.0,3.0
1701619622.1273315,-5.0,6.0,-6.0,-5.0,5.0,3.0,2.0,-1.0
1701619622.1273315,-16.0,-25.0,-24.0,0.0,2.0,2.0,-1.0,-1.0
1701619622.1418004,9.0,12.0,-2.0,-3.0,-11.0,-4.0,1.0,3.0
1701619622.1418004,6.0,-1.0,21.0,10.0,1.0,-3.0,-3.0,-4.0
1701619622.1425624,-15.0,0.0,-5.0,-9.0,0.0,1.0,0.0,0.0
1701619622.1425624,2.0,7.0,12.0,-9.0,-14.0,-7.0,-5.0,-3.0
1701619622.165548,1.0,18.0,-16.0,6.0,20.0,8.0,4.0,0.0
1701619622.165548,-14.0,-38.0,20.0,19.0,-2.0,-1.0,0.0,-2.0
1701619622.165548,15.0,25.0,30.0,7.0,0.0,4.0,5.0,4.0
1701619622.165548,16.0,0.0,-11.0,-13.0,-2.0,-5.0,-6.0,-1.0
1701619622.188804,-32.0,-5.0,-9.0,2.0,-5.0,-1.0,-1.0,-5.0
1701619622.188804,30.0,-4.0,-9.0,-12.0,-4.0,-3.0,1.0,-1.0
1701619622.188804,-12.0,-3.0,-12.0,-4.0,-6.0,-6.0,0.0,-2.0
1701619622.188804,15.0,18.0,9.0,5.0,2.0,2.0,0.0,1.0
1701619622.2029045,-11.0,6.0,22.0,13.0,-1.0,-1.0,-2.0,0.0
1701619622.2029045,-6.0,-5.0,-45.0,-24.0,-1.0,-1.0,-2.0,-3.0
1701619622.2029045,6.0,7.0,0.0,3.0,-3.0,-3.0,0.0,0.0
1701619622.203841,-19.0,-8.0,2.0,-11.0,0.0,0.0,1.0,-4.0
1701619622.2364862,4.0,-4.0,5.0,-12.0,-4.0,-4.0,-5.0,-3.0
1701619622.2364862,27.0,29.0,-7.0,23.0,-5.0,-1.0,1.0,-1.0
1701619622.2364862,-28.0,-34.0,-15.0,-17.0,-2.0,-1.0,-10.0,-4.0
1701619622.2364862,6.0,1.0,6.0,10.0,0.0,-4.0,-2.0,0.0
1701619622.247999,-15.0,-9.0,14.0,-1.0,4.0,2.0,0.0,0.0
1701619622.247999,19.0,16.0,-2.0,-7.0,2.0,0.0,4.0,0.0
1701619622.247999,2.0,9.0,-1.0,-2.0,-6.0,-3.0,-2.0,-5.0
1701619622.247999,10.0,-2.0,25.0,15.0,7.0,3.0,9.0,6.0
1701619622.2628639,-18.0,-36.0,-70.0,-32.0,-12.0,-4.0,-9.0,-4.0
1701619622.2628639,-10.0,-30.0,23.0,8.0,-1.0,-3.0,-5.0,-3.0
1701619622.2628639,-4.0,9.0,0.0,-4.0,2.0,2.0,2.0,-1.0
1701619622.2628639,-12.0,-28.0,-64.0,-22.0,-6.0,-5.0,-11.0,-6.0
1701619622.2847416,43.0,-11.0,55.0,19.0,-7.0,-4.0,8.0,-2.0
1701619622.2857723,-38.0,15.0,-33.0,-6.0,2.0,4.0,3.0,1.0
1701619622.2857723,1.0,-80.0,-2.0,8.0,0.0,-2.0,-4.0,-5.0
1701619622.2857723,21.0,-1.0,18.0,3.0,3.0,3.0,0.0,2.0
1701619622.307726,-5.0,14.0,-6.0,-2.0,3.0,2.0,3.0,3.0
1701619622.307726,3.0,9.0,-7.0,-14.0,-8.0,-5.0,-14.0,-3.0
1701619622.308499,3.0,41.0,8.0,0.0,4.0,1.0,8.0,-2.0
1701619622.308499,21.0,14.0,-8.0,-2.0,-1.0,4.0,18.0,3.0
1701619622.3214839,-25.0,-4.0,5.0,6.0,0.0,-1.0,2.0,-1.0
1701619622.3214839,-2.0,13.0,7.0,5.0,0.0,-2.0,-9.0,-3.0
1701619622.3225582,10.0,29.0,-15.0,-8.0,-2.0,-2.0,-14.0,-1.0
1701619622.3225582,-7.0,1.0,2.0,-1.0,0.0,-7.0,-10.0,-8.0
1701619622.3527546,10.0,11.0,30.0,11.0,2.0,-1.0,8.0,1.0
1701619622.3527546,-14.0,2.0,15.0,6.0,1.0,0.0,9.0,0.0
1701619622.35361,-5.0,-30.0,-26.0,-10.0,-2.0,0.0,10.0,1.0
1701619622.35361,11.0,18.0,41.0,19.0,1.0,2.0,4.0,10.0
1701619622.3682325,-8.0,-1.0,23.0,-14.0,-7.0,-6.0,-14.0,-8.0
1701619622.3682325,-3.0,-24.0,-50.0,-26.0,-3.0,-2.0,-1.0,-5.0
1701619622.3682325,-1.0,-32.0,-2.0,-4.0,-5.0,-2.0,-6.0,-3.0
1701619622.3682325,7.0,53.0,72.0,1.0,0.0,2.0,-4.0,1.0
1701619622.384073,-11.0,2.0,-33.0,3.0,-1.0,-2.0,-5.0,3.0
1701619622.384073,12.0,-19.0,28.0,13.0,3.0,4.0,14.0,5.0
1701619622.384073,-16.0,16.0,3.0,13.0,-1.0,0.0,-8.0,-4.0
1701619622.384073,3.0,-14.0,-30.0,-26.0,-5.0,0.0,14.0,2.0
1701619622.404803,20.0,32.0,5.0,6.0,0.0,-4.0,-5.0,1.0
1701619622.404803,0.0,-9.0,8.0,1.0,-1.0,-2.0,-7.0,-4.0
1701619622.4059758,-11.0,11.0,-7.0,-5.0,-2.0,-8.0,-6.0,-3.0
1701619622.4059758,-18.0,-12.0,7.0,13.0,2.0,1.0,-1.0,-6.0
1701619622.427718,0.0,-45.0,-45.0,-23.0,-6.0,-2.0,-2.0,-3.0
1701619622.427718,17.0,11.0,-10.0,-2.0,1.0,2.0,11.0,4.0
1701619622.4283988,-19.0,3.0,26.0,-9.0,-3.0,-1.0,-21.0,-2.0
1701619622.4283988,-1.0,-15.0,-10.0,-1.0,3.0,1.0,-3.0,-1.0
1701619622.443115,2.0,44.0,0.0,14.0,-1.0,1.0,0.0,-1.0
1701619622.443115,16.0,27.0,30.0,13.0,3.0,0.0,-5.0,4.0
1701619622.443115,-6.0,5.0,-18.0,-14.0,-1.0,0.0,12.0,-3.0
1701619622.443115,-18.0,-62.0,-20.0,-6.0,-5.0,-4.0,-10.0,-9.0
1701619622.4651642,5.0,21.0,9.0,4.0,3.0,0.0,9.0,7.0
1701619622.4651642,6.0,3.0,26.0,10.0,0.0,-1.0,-21.0,-1.0
1701619622.4669585,15.0,38.0,-18.0,-7.0,0.0,3.0,21.0,2.0
1701619622.4669585,-8.0,13.0,-10.0,3.0,0.0,-3.0,-26.0,-3.0
1701619622.4877534,9.0,-4.0,-4.0,-1.0,0.0,-4.0,3.0,-8.0
1701619622.4887698,-10.0,-18.0,-7.0,-1.0,-2.0,0.0,5.0,2.0
1701619622.4887698,15.0,7.0,25.0,15.0,3.0,-2.0,-11.0,4.0
1701619622.4887698,-13.0,-74.0,-44.0,-22.0,-8.0,-4.0,6.0,-9.0
1701619622.5025482,-20.0,-51.0,11.0,16.0,-4.0,-7.0,-26.0,-7.0
1701619622.5025482,6.0,28.0,-37.0,-21.0,-2.0,4.0,15.0,-4.0
1701619622.5041478,2.0,-19.0,5.0,8.0,-1.0,-5.0,-30.0,-2.0
1701619622.5041478,-16.0,2.0,-14.0,-14.0,-2.0,-4.0,-5.0,-3.0
1701619622.5265157,23.0,41.0,13.0,12.0,2.0,1.0,8.0,6.0
1701619622.5265157,-38.0,-55.0,22.0,19.0,3.0,-1.0,10.0,-1.0
1701619622.5275118,11.0,0.0,-15.0,-8.0,-3.0,2.0,11.0,-3.0
1701619622.5275118,-4.0,20.0,6.0,-6.0,-8.0,-6.0,-7.0,-5.0
1701619622.5662801,-14.0,-32.0,-46.0,-21.0,-2.0,-2.0,5.0,-2.0
1701619622.5662801,30.0,35.0,20.0,7.0,4.0,5.0,5.0,10.0
1701619622.5662801,-11.0,-16.0,10.0,4.0,-1.0,-2.0,17.0,6.0
1701619622.5662801,14.0,23.0,14.0,1.0,1.0,-2.0,-10.0,0.0
1701619622.5662801,5.0,7.0,11.0,7.0,4.0,3.0,-9.0,-6.0
1701619622.5662801,-2.0,3.0,-4.0,8.0,-4.0,-6.0,-9.0,-2.0
1701619622.5702806,-12.0,-33.0,-11.0,-27.0,-1.0,3.0,1.0,-7.0
1701619622.5702806,5.0,6.0,-20.0,8.0,-1.0,1.0,-5.0,1.0
1701619622.5855803,4.0,7.0,-5.0,-4.0,0.0,1.0,7.0,2.0
1701619622.5855803,-4.0,-1.0,7.0,0.0,-2.0,-4.0,-7.0,-3.0
1701619622.58659,0.0,4.0,-3.0,7.0,5.0,2.0,-3.0,-2.0
1701619622.58659,2.0,40.0,15.0,1.0,4.0,2.0,10.0,5.0
1701619622.6076283,-22.0,-60.0,-37.0,12.0,-4.0,-1.0,4.0,-4.0
1701619622.6076283,-7.0,-6.0,19.0,-19.0,-8.0,-7.0,-9.0,-8.0
1701619622.6091726,-2.0,5.0,-4.0,6.0,1.0,0.0,1.0,-3.0
1701619622.6091726,-15.0,-7.0,3.0,8.0,0.0,-4.0,-28.0,-9.0
1701619622.6210039,24.0,27.0,11.0,-4.0,3.0,2.0,19.0,9.0
1701619622.6210039,-44.0,-40.0,3.0,4.0,2.0,0.0,-28.0,-16.0
1701619622.6297905,8.0,6.0,-17.0,-4.0,-3.0,8.0,78.0,39.0
1701619622.6297905,4.0,-11.0,-17.0,-9.0,-3.0,-1.0,23.0,4.0
1701619622.6450438,2.0,-6.0,12.0,-8.0,0.0,0.0,5.0,20.0
1701619622.6450438,4.0,19.0,29.0,9.0,2.0,-2.0,-13.0,-18.0
1701619622.6468532,15.0,47.0,-22.0,-11.0,-3.0,-5.0,-34.0,-15.0
1701619622.6468532,-49.0,-50.0,-7.0,-16.0,-11.0,-7.0,-5.0,-10.0
1701619622.6678643,-40.0,-11.0,29.0,32.0,-1.0,-1.0,-14.0,-15.0
1701619622.6678643,19.0,-14.0,-47.0,-44.0,-8.0,-4.0,7.0,6.0
1701619622.6688652,-33.0,-26.0,30.0,17.0,3.0,-2.0,-18.0,-7.0
1701619622.6688652,-1.0,37.0,29.0,19.0,4.0,0.0,8.0,3.0
1701619622.6825955,10.0,3.0,18.0,-9.0,1.0,2.0,-7.0,-4.0
1701619622.6825955,-16.0,-8.0,-37.0,0.0,-2.0,1.0,2.0,3.0
1701619622.6908152,18.0,-6.0,11.0,-9.0,-1.0,-3.0,-4.0,-4.0
1701619622.6908152,13.0,2.0,9.0,16.0,-15.0,-10.0,-6.0,-2.0
1701619622.7081966,-25.0,-4.0,4.0,-6.0,-2.0,-1.0,-2.0,-5.0
1701619622.7081966,10.0,15.0,-9.0,4.0,-2.0,-2.0,8.0,6.0
1701619622.7081966,10.0,9.0,-18.0,-15.0,-2.0,0.0,-1.0,3.0
1701619622.7081966,16.0,5.0,13.0,14.0,11.0,9.0,5.0,1.0
1701619622.7344575,-11.0,23.0,-16.0,-21.0,0.0,0.0,-7.0,-6.0
1701619622.7344575,11.0,22.0,-4.0,-10.0,-4.0,-4.0,2.0,1.0
1701619622.7344575,-1.0,-24.0,7.0,15.0,-1.0,-1.0,-4.0,-1.0
1701619622.7344575,5.0,-12.0,-18.0,-6.0,-2.0,-2.0,-3.0,0.0
1701619622.7413886,18.0,6.0,15.0,1.0,1.0,-3.0,0.0,-2.0
1701619622.7424073,-35.0,-8.0,-15.0,-4.0,-2.0,-2.0,2.0,-4.0
1701619622.7509747,12.0,9.0,-5.0,8.0,5.0,2.0,-4.0,0.0
1701619622.7509747,-7.0,-20.0,-13.0,-7.0,-8.0,-2.0,0.0,-3.0
1701619622.7709768,29.0,35.0,-26.0,-11.0,4.0,3.0,3.0,5.0
1701619622.7709768,5.0,6.0,53.0,18.0,1.0,4.0,1.0,2.0
1701619622.772005,9.0,3.0,4.0,1.0,-5.0,-5.0,-6.0,0.0
1701619622.772005,-8.0,10.0,-40.0,6.0,4.0,6.0,7.0,1.0
1701619622.795352,0.0,-1.0,-22.0,-17.0,-5.0,-6.0,-6.0,-3.0
1701619622.795352,4.0,-37.0,19.0,-1.0,-2.0,-5.0,-13.0,1.0
1701619622.795352,0.0,8.0,14.0,-1.0,-1.0,-3.0,14.0,-8.0
1701619622.795352,6.0,-7.0,-20.0,-9.0,1.0,1.0,-13.0,-3.0
1701619622.8016162,5.0,16.0,21.0,18.0,2.0,0.0,-2.0,2.0
1701619622.8016162,7.0,-1.0,-38.0,-12.0,-1.0,4.0,20.0,6.0
1701619622.810392,-14.0,-51.0,-24.0,-16.0,-8.0,-5.0,-22.0,-9.0
1701619622.810392,-15.0,17.0,57.0,2.0,5.0,-2.0,-4.0,2.0
1701619622.8254213,-27.0,-9.0,-33.0,-1.0,-3.0,-1.0,2.0,-8.0
1701619622.8254213,6.0,-16.0,-34.0,-10.0,-6.0,-5.0,-8.0,-4.0
1701619622.8264303,-18.0,-28.0,-7.0,4.0,-2.0,-4.0,-2.0,-3.0
1701619622.8264303,16.0,18.0,77.0,29.0,4.0,4.0,8.0,4.0
1701619622.8475988,-19.0,-15.0,-42.0,-38.0,-1.0,0.0,-8.0,-3.0
1701619622.8475988,4.0,8.0,-34.0,9.0,-3.0,-2.0,2.0,4.0
1701619622.8488784,2.0,-16.0,26.0,-3.0,-4.0,-2.0,-3.0,-3.0
1701619622.8488784,15.0,-18.0,4.0,-11.0,6.0,1.0,-4.0,-2.0
1701619622.8536816,21.0,-18.0,36.0,34.0,3.0,-1.0,2.0,2.0
1701619622.8536816,-49.0,9.0,-18.0,-12.0,-4.0,-3.0,-1.0,-10.0
1701619622.8636851,21.0,7.0,49.0,14.0,3.0,3.0,3.0,6.0
1701619622.8636851,-5.0,20.0,-50.0,-28.0,-5.0,-5.0,-2.0,1.0
1701619622.8840594,6.0,-35.0,3.0,-3.0,-7.0,-2.0,-5.0,-4.0
1701619622.8840594,-6.0,-3.0,29.0,8.0,4.0,1.0,-17.0,-7.0
1701619622.8840594,8.0,30.0,17.0,12.0,3.0,5.0,36.0,15.0
1701619622.8840594,-41.0,-33.0,-8.0,2.0,0.0,-5.0,-22.0,-11.0
1701619622.9043515,49.0,17.0,-47.0,-22.0,-9.0,-3.0,21.0,8.0
1701619622.9043515,-16.0,18.0,8.0,13.0,3.0,4.0,1.0,-1.0
1701619622.9043515,-14.0,-25.0,-12.0,-9.0,-3.0,-3.0,-5.0,-4.0
1701619622.9043515,16.0,-16.0,-20.0,-8.0,-2.0,-2.0,1.0,3.0
1701619622.9143116,13.0,28.0,34.0,29.0,4.0,2.0,-12.0,-3.0
1701619622.9143116,14.0,38.0,25.0,-13.0,3.0,0.0,3.0,0.0
1701619622.924287,2.0,61.0,-50.0,-7.0,-9.0,-2.0,-6.0,2.0
1701619622.924287,-8.0,-52.0,-4.0,-5.0,-1.0,0.0,5.0,0.0
1701619622.9640577,1.0,55.0,36.0,8.0,2.0,0.0,-8.0,1.0
1701619622.9640577,22.0,-53.0,16.0,15.0,-2.0,0.0,7.0,3.0
1701619622.974055,-43.0,-28.0,13.0,9.0,5.0,2.0,-5.0,-3.0
1701619622.974055,6.0,-34.0,4.0,14.0,4.0,4.0,3.0,1.0
1701619622.974055,-44.0,-57.0,-9.0,-39.0,-3.0,-2.0,0.0,-6.0
1701619622.974055,23.0,19.0,-9.0,21.0,4.0,-3.0,-1.0,9.0
1701619622.974055,11.0,35.0,-14.0,-21.0,-8.0,-1.0,-11.0,-7.0
1701619622.974055,18.0,-4.0,16.0,14.0,9.0,4.0,9.0,3.0
1701619622.974055,19.0,5.0,-16.0,3.0,-1.0,-2.0,3.0,3.0
1701619622.974055,20.0,30.0,13.0,-2.0,-5.0,-7.0,-6.0,-5.0
1701619622.994057,-24.0,-59.0,-4.0,-9.0,-7.0,-5.0,-7.0,-4.0
1701619622.994057,9.0,79.0,-30.0,4.0,4.0,0.0,7.0,-1.0
1701619623.004409,-1.0,-29.0,4.0,-18.0,-15.0,-6.0,-4.0,-3.0
1701619623.004409,-12.0,-7.0,-66.0,-22.0,0.0,2.0,-2.0,0.0
1701619623.0140579,-13.0,-37.0,2.0,8.0,-1.0,-2.0,-3.0,-8.0
1701619623.0140579,10.0,35.0,20.0,5.0,0.0,1.0,2.0,1.0
1701619623.0243673,-12.0,-2.0,-17.0,18.0,4.0,0.0,-15.0,-8.0
1701619623.0243673,6.0,14.0,28.0,5.0,-7.0,-6.0,-27.0,1.0
1701619623.0243673,3.0,21.0,10.0,-10.0,1.0,5.0,47.0,5.0
1701619623.0243673,1.0,10.0,-39.0,-24.0,-6.0,-3.0,-4.0,-10.0
1701619623.034372,1.0,12.0,3.0,5.0,3.0,4.0,22.0,8.0
1701619623.034372,-14.0,-22.0,10.0,8.0,2.0,2.0,-15.0,-9.0
1701619623.0540562,13.0,12.0,-17.0,0.0,2.0,-5.0,-29.0,-4.0
1701619623.0540562,-8.0,3.0,4.0,-3.0,-2.0,-2.0,4.0,3.0
1701619623.064302,-8.0,9.0,-13.0,-3.0,-3.0,1.0,7.0,-6.0
1701619623.064302,4.0,-1.0,-3.0,-8.0,-5.0,-3.0,7.0,4.0
1701619623.064302,13.0,11.0,2.0,-2.0,0.0,-1.0,-4.0,0.0
1701619623.064302,-12.0,2.0,6.0,11.0,-2.0,1.0,2.0,2.0
1701619623.0843625,-21.0,-50.0,-11.0,-2.0,1.0,-5.0,-15.0,-7.0
1701619623.0843625,3.0,-10.0,16.0,-4.0,1.0,4.0,13.0,2.0
1701619623.0843625,-5.0,-16.0,-12.0,-2.0,2.0,1.0,-7.0,0.0
1701619623.0843625,25.0,14.0,-1.0,-16.0,-11.0,-8.0,-5.0,-1.0
1701619623.0943246,-30.0,11.0,26.0,18.0,-3.0,-5.0,-7.0,-4.0
1701619623.0943246,-8.0,-29.0,-11.0,0.0,-3.0,-3.0,7.0,-5.0
1701619623.1340551,7.0,29.0,15.0,-6.0,3.0,4.0,-1.0,-1.0
1701619623.1340551,-5.0,0.0,33.0,25.0,10.0,3.0,-3.0,0.0
1701619623.1340551,18.0,32.0,-16.0,-22.0,3.0,1.0,-2.0,4.0
1701619623.1340551,7.0,-4.0,-3.0,0.0,1.0,1.0,6.0,0.0
1701619623.1340551,9.0,18.0,-1.0,14.0,1.0,0.0,-9.0,-1.0
1701619623.1340551,-6.0,-51.0,9.0,14.0,-4.0,-5.0,0.0,-1.0
1701619623.1443222,-6.0,-16.0,-22.0,-30.0,-3.0,0.0,0.0,-3.0
1701619623.1443222,-5.0,12.0,6.0,3.0,10.0,1.0,3.0,-4.0
1701619623.1443222,3.0,36.0,13.0,-9.0,-7.0,-2.0,-4.0,2.0
1701619623.1443222,-11.0,-33.0,-8.0,6.0,-3.0,-1.0,-1.0,-1.0
1701619623.174055,8.0,25.0,5.0,-13.0,-7.0,0.0,0.0,1.0
1701619623.174055,-12.0,1.0,-39.0,12.0,-4.0,-6.0,-5.0,-2.0
1701619623.174055,30.0,28.0,-15.0,-34.0,-7.0,-1.0,-1.0,-3.0
1701619623.174055,2.0,-13.0,-19.0,16.0,8.0,2.0,1.0,0.0
1701619623.1840582,-42.0,-57.0,17.0,5.0,-3.0,-4.0,-7.0,-6.0
1701619623.1840582,5.0,38.0,17.0,-6.0,-1.0,3.0,4.0,2.0
1701619623.1840582,-2.0,-29.0,-44.0,-9.0,-10.0,-5.0,-6.0,-6.0
1701619623.1840582,26.0,19.0,-25.0,-27.0,-5.0,-3.0,-8.0,0.0
1701619623.2044206,-2.0,6.0,-13.0,-11.0,-2.0,0.0,-3.0,-1.0
1701619623.2044206,-5.0,-18.0,-10.0,3.0,-4.0,-4.0,2.0,1.0
1701619623.2044206,-14.0,-10.0,37.0,20.0,10.0,-1.0,-2.0,-5.0
1701619623.2044206,14.0,-6.0,1.0,3.0,-2.0,0.0,1.0,5.0
1701619623.2240894,5.0,101.0,19.0,-11.0,2.0,5.0,4.0,7.0
1701619623.2240894,5.0,61.0,33.0,21.0,5.0,4.0,4.0,0.0
1701619623.2240894,-49.0,-76.0,-24.0,-14.0,-6.0,-3.0,-5.0,-5.0
1701619623.2240894,19.0,7.0,-53.0,-27.0,3.0,1.0,-1.0,2.0
1701619623.2444868,-14.0,-2.0,40.0,16.0,0.0,-2.0,-3.0,-4.0
1701619623.2444868,-38.0,-77.0,13.0,-4.0,-1.0,-2.0,-4.0,-6.0
1701619623.2444868,-51.0,25.0,-11.0,-4.0,1.0,3.0,5.0,0.0
1701619623.2444868,-5.0,21.0,28.0,7.0,-6.0,-3.0,0.0,-1.0
1701619623.2644804,22.0,-14.0,-51.0,13.0,1.0,0.0,-1.0,-1.0
1701619623.2644804,-10.0,-9.0,21.0,-11.0,1.0,0.0,9.0,2.0
1701619623.2644804,20.0,28.0,0.0,-2.0,-8.0,-8.0,-31.0,-9.0
1701619623.2644804,-1.0,-5.0,-2.0,-18.0,-1.0,0.0,-14.0,-3.0
1701619623.2840896,-39.0,-58.0,12.0,26.0,5.0,-2.0,12.0,12.0
1701619623.2840896,14.0,-10.0,22.0,-6.0,-1.0,4.0,24.0,-2.0
1701619623.2840896,14.0,23.0,3.0,0.0,-2.0,-3.0,-11.0,0.0
1701619623.2840896,-30.0,26.0,-4.0,-11.0,-3.0,-1.0,-7.0,-34.0
1701619623.3044605,11.0,7.0,-1.0,6.0,3.0,-6.0,-80.0,-57.0
1701619623.3044605,0.0,-48.0,18.0,17.0,-1.0,9.0,92.0,90.0
1701619623.3044605,2.0,12.0,-12.0,0.0,5.0,6.0,79.0,29.0
1701619623.3044605,-4.0,26.0,-4.0,-7.0,-2.0,-9.0,-56.0,-33.0
1701619623.3242383,-4.0,-92.0,6.0,0.0,-1.0,6.0,76.0,44.0
1701619623.3242383,5.0,-12.0,-51.0,-21.0,0.0,-6.0,-60.0,-48.0
1701619623.3340566,12.0,32.0,6.0,9.0,1.0,1.0,17.0,9.0
1701619623.3340566,-35.0,-32.0,15.0,7.0,-2.0,2.0,-2.0,3.0
1701619623.3441112,46.0,82.0,7.0,5.0,0.0,-8.0,-78.0,-31.0
1701619623.3441112,-17.0,-17.0,-1.0,2.0,-7.0,-8.0,30.0,15.0
1701619623.3441112,18.0,-24.0,-57.0,-54.0,-11.0,-6.0,-59.0,-13.0
1701619623.3441112,-12.0,-22.0,8.0,-2.0,-4.0,2.0,67.0,13.0
1701619623.36475,13.0,35.0,16.0,5.0,2.0,4.0,-9.0,-4.0
1701619623.36475,35.0,17.0,16.0,13.0,-1.0,-1.0,11.0,13.0
1701619623.371604,-34.0,22.0,34.0,29.0,10.0,1.0,-32.0,-31.0
1701619623.371604,19.0,0.0,-31.0,-29.0,-8.0,-3.0,-14.0,27.0
1701619623.3864977,-84.0,-65.0,-23.0,2.0,-3.0,-2.0,43.0,10.0
1701619623.3864977,22.0,39.0,1.0,-3.0,0.0,-4.0,-44.0,-25.0
1701619623.3864977,0.0,-31.0,16.0,37.0,4.0,1.0,5.0,-11.0
1701619623.3864977,1.0,-2.0,-19.0,-29.0,-1.0,2.0,9.0,18.0
1701619623.4068255,9.0,22.0,14.0,0.0,-2.0,-2.0,7.0,6.0
1701619623.4068255,-6.0,31.0,5.0,-8.0,-1.0,1.0,-9.0,-15.0
1701619623.4068255,-15.0,-22.0,4.0,22.0,4.0,-6.0,-11.0,3.0
1701619623.4068255,6.0,8.0,27.0,3.0,6.0,6.0,24.0,8.0
1701619623.4168177,22.0,13.0,9.0,-3.0,0.0,1.0,0.0,2.0
1701619623.4168177,-16.0,-28.0,-25.0,-16.0,-7.0,-4.0,-20.0,-16.0
1701619623.426733,21.0,28.0,55.0,43.0,6.0,6.0,12.0,7.0
1701619623.426733,-7.0,-30.0,-68.0,-22.0,-9.0,-4.0,22.0,8.0
1701619623.4464967,10.0,14.0,13.0,-15.0,-3.0,0.0,11.0,4.0
1701619623.4464967,2.0,29.0,-19.0,-7.0,1.0,-1.0,-8.0,-4.0
1701619623.4464967,15.0,-31.0,-20.0,-15.0,-1.0,0.0,-5.0,3.0
1701619623.4464967,-30.0,-63.0,15.0,18.0,1.0,-6.0,-46.0,-27.0
1701619623.476849,25.0,8.0,-2.0,-9.0,-4.0,3.0,55.0,27.0
1701619623.476849,12.0,-5.0,29.0,3.0,-1.0,-3.0,-12.0,-5.0
1701619623.476849,-34.0,9.0,-48.0,1.0,-1.0,-2.0,-2.0,-5.0
1701619623.476849,9.0,10.0,37.0,4.0,4.0,1.0,9.0,-3.0
1701619623.476849,24.0,25.0,-1.0,-10.0,1.0,-2.0,-28.0,3.0
1701619623.476849,-29.0,-28.0,-5.0,-1.0,-6.0,-10.0,-28.0,-15.0
1701619623.4867644,-33.0,-6.0,21.0,-12.0,0.0,1.0,14.0,4.0
1701619623.4867644,24.0,41.0,21.0,17.0,-5.0,-4.0,7.0,6.0
1701619623.5064964,-36.0,-49.0,-50.0,-4.0,6.0,4.0,-5.0,-9.0
1701619623.5064964,11.0,4.0,37.0,6.0,-4.0,0.0,2.0,-1.0
1701619623.5064964,46.0,55.0,34.0,2.0,-2.0,-4.0,-14.0,2.0
1701619623.5064964,-35.0,25.0,-1.0,-4.0,-1.0,3.0,6.0,-3.0
1701619623.5267458,15.0,60.0,-15.0,4.0,-3.0,-1.0,14.0,0.0
1701619623.5267458,-36.0,-68.0,-11.0,-5.0,1.0,-4.0,-19.0,-7.0
1701619623.5267458,3.0,-8.0,4.0,-6.0,-3.0,1.0,38.0,17.0
1701619623.5267458,35.0,68.0,39.0,20.0,3.0,1.0,11.0,12.0
1701619623.5369813,5.0,-23.0,-22.0,-2.0,0.0,-2.0,-10.0,-16.0
1701619623.5369813,-1.0,30.0,-37.0,-15.0,-2.0,1.0,1.0,3.0
1701619623.546936,-2.0,-36.0,-23.0,-2.0,-5.0,-3.0,-2.0,0.0
1701619623.546936,3.0,-18.0,29.0,-3.0,-1.0,-3.0,-6.0,-5.0
1701619623.576929,8.0,8.0,-10.0,-1.0,-1.0,-2.0,-8.0,0.0
1701619623.576929,-17.0,-19.0,-20.0,6.0,4.0,4.0,-13.0,-6.0
1701619623.576929,-7.0,-31.0,-15.0,-22.0,-3.0,-4.0,-7.0,-10.0
1701619623.576929,8.0,19.0,30.0,36.0,0.0,-1.0,3.0,3.0
1701619623.5869608,-2.0,-10.0,-3.0,0.0,10.0,5.0,-8.0,-2.0
1701619623.5869608,39.0,29.0,10.0,9.0,3.0,1.0,1.0,2.0
1701619623.5869608,-6.0,13.0,-13.0,8.0,-2.0,-2.0,7.0,2.0
1701619623.5869608,-8.0,-46.0,8.0,-39.0,-6.0,-2.0,-11.0,-6.0
1701619623.606928,-6.0,19.0,5.0,21.0,3.0,-5.0,-11.0,-4.0
1701619623.606928,1.0,4.0,3.0,-6.0,1.0,1.0,9.0,1.0
1701619623.606928,13.0,-4.0,-9.0,-21.0,-5.0,2.0,-3.0,2.0
1701619623.606928,16.0,22.0,16.0,27.0,5.0,-2.0,-8.0,-2.0
1701619623.6273625,-14.0,-40.0,22.0,2.0,-6.0,-4.0,-10.0,-1.0
1701619623.6273625,-7.0,-30.0,-44.0,-22.0,-2.0,2.0,22.0,6.0
1701619623.6273625,2.0,-17.0,16.0,3.0,0.0,-2.0,-11.0,-7.0
1701619623.6273625,-2.0,-4.0,-10.0,-5.0,-6.0,-1.0,-3.0,-3.0
1701619623.6473541,-2.0,6.0,-17.0,5.0,-4.0,-1.0,3.0,-2.0
1701619623.6473541,-11.0,7.0,10.0,-11.0,4.0,-3.0,-5.0,-3.0
1701619623.6473541,14.0,2.0,-9.0,-13.0,-5.0,-1.0,-4.0,-3.0
1701619623.6473541,-3.0,20.0,-33.0,-2.0,-1.0,-2.0,0.0,2.0
1701619623.6573057,14.0,-36.0,12.0,-4.0,-15.0,-11.0,-7.0,-4.0
1701619623.6573057,0.0,46.0,-14.0,-7.0,-7.0,-4.0,-5.0,-3.0
1701619623.6672106,10.0,-34.0,28.0,30.0,20.0,7.0,4.0,4.0
1701619623.6672106,-16.0,-35.0,10.0,4.0,11.0,7.0,2.0,2.0
1701619623.6872938,0.0,-15.0,9.0,-13.0,-10.0,-4.0,-2.0,-3.0
1701619623.6872938,5.0,17.0,29.0,2.0,-4.0,-1.0,-2.0,2.0
1701619623.6872938,6.0,-7.0,-3.0,-8.0,-4.0,0.0,1.0,1.0
1701619623.6872938,9.0,7.0,-39.0,-8.0,-6.0,-4.0,-6.0,-3.0
1701619623.706928,-15.0,11.0,-13.0,-18.0,0.0,-2.0,0.0,-1.0
1701619623.706928,-4.0,-22.0,24.0,27.0,-1.0,-1.0,-2.0,-2.0
1701619623.706928,-5.0,-4.0,24.0,9.0,-3.0,-3.0,-4.0,1.0
1701619623.706928,-12.0,-22.0,-53.0,-31.0,-8.0,-4.0,-3.0,0.0
1701619623.7269309,-4.0,20.0,22.0,6.0,-6.0,-3.0,0.0,7.0
1701619623.7269309,-6.0,20.0,-18.0,-3.0,8.0,5.0,3.0,-27.0
1701619623.7469292,10.0,11.0,26.0,14.0,0.0,-2.0,-2.0,14.0
1701619623.7469292,1.0,-16.0,-13.0,-6.0,-5.0,0.0,0.0,0.0
1701619623.7469292,2.0,-13.0,-23.0,-14.0,-4.0,1.0,0.0,-4.0
1701619623.7469292,7.0,-18.0,32.0,7.0,-1.0,0.0,-1.0,19.0
1701619623.7469292,-17.0,1.0,-27.0,-9.0,-2.0,-3.0,-1.0,-12.0
1701619623.7469292,0.0,39.0,23.0,1.0,6.0,2.0,1.0,0.0
1701619623.7669277,-7.0,-1.0,-1.0,-3.0,5.0,1.0,2.0,4.0
1701619623.7669277,-9.0,-27.0,9.0,15.0,-2.0,-4.0,-10.0,-8.0
1701619623.7669277,-5.0,2.0,-37.0,-11.0,-10.0,-5.0,-4.0,-7.0
1701619623.7669277,-7.0,13.0,23.0,-9.0,6.0,1.0,6.0,1.0
1701619623.7869322,4.0,-10.0,8.0,10.0,2.0,1.0,-3.0,-3.0
1701619623.7869322,1.0,21.0,-24.0,-11.0,-1.0,0.0,3.0,6.0
1701619623.8069313,-6.0,1.0,-9.0,-16.0,-6.0,-3.0,-3.0,-1.0
1701619623.8069313,-4.0,-12.0,0.0,13.0,-8.0,-7.0,-9.0,-6.0
1701619623.8069313,5.0,11.0,-3.0,3.0,5.0,3.0,-2.0,-14.0
1701619623.8069313,5.0,7.0,-8.0,-11.0,-9.0,-3.0,0.0,11.0
1701619623.8069313,5.0,16.0,-4.0,-13.0,4.0,0.0,2.0,0.0
1701619623.8069313,6.0,-34.0,-11.0,-4.0,0.0,0.0,-3.0,-11.0
1701619623.8369277,-1.0,30.0,4.0,4.0,-2.0,-5.0,0.0,-5.0
1701619623.8369277,-2.0,-13.0,-9.0,-8.0,-4.0,-4.0,-4.0,-2.0
1701619623.8369277,0.0,3.0,12.0,8.0,0.0,2.0,-1.0,-7.0
1701619623.8369277,24.0,9.0,-21.0,-13.0,-1.0,-2.0,2.0,10.0
1701619623.8369277,-37.0,-2.0,27.0,1.0,-5.0,-1.0,-4.0,-3.0
1701619623.8369277,0.0,-12.0,16.0,29.0,11.0,6.0,10.0,-5.0
1701619623.8471723,-2.0,10.0,-29.0,-25.0,0.0,0.0,-3.0,3.0
1701619623.8471723,11.0,1.0,3.0,7.0,-5.0,-4.0,-8.0,-5.0
1701619623.867275,-6.0,4.0,39.0,15.0,3.0,2.0,4.0,4.0
1701619623.867275,-16.0,4.0,-18.0,6.0,9.0,1.0,1.0,-2.0
1701619623.867275,-4.0,-18.0,13.0,7.0,-4.0,-3.0,6.0,-4.0
1701619623.867275,-3.0,17.0,13.0,16.0,5.0,0.0,-2.0,2.0
1701619623.8950949,9.0,-43.0,-41.0,-31.0,-4.0,-2.0,-14.0,-2.0
1701619623.8950949,-19.0,39.0,5.0,5.0,-7.0,2.0,13.0,-3.0
1701619623.8950949,7.0,-12.0,14.0,16.0,3.0,-7.0,-37.0,6.0
1701619623.8950949,-8.0,-7.0,21.0,-6.0,-2.0,-1.0,-1.0,-16.0
1701619623.904204,-23.0,-6.0,-19.0,2.0,-2.0,-1.0,6.0,6.0
1701619623.904204,24.0,1.0,-10.0,-18.0,1.0,3.0,19.0,5.0
1701619623.9144773,-10.0,2.0,11.0,2.0,-1.0,1.0,-7.0,-17.0
1701619623.9144773,-3.0,20.0,2.0,-8.0,-5.0,-5.0,-3.0,14.0
1701619623.9244618,-9.0,-5.0,-17.0,-2.0,3.0,1.0,-13.0,-3.0
1701619623.9244618,-12.0,-32.0,17.0,6.0,2.0,-3.0,-7.0,0.0
1701619623.9244618,-5.0,3.0,-13.0,-2.0,-2.0,1.0,9.0,0.0
1701619623.9244618,12.0,2.0,-25.0,-4.0,1.0,4.0,4.0,-17.0
1701619623.9742093,22.0,10.0,-9.0,-11.0,2.0,3.0,11.0,2.0
1701619623.9742093,1.0,9.0,-3.0,-4.0,-5.0,-5.0,-19.0,-5.0
1701619623.9742093,8.0,7.0,28.0,21.0,-2.0,0.0,11.0,6.0
1701619623.9742093,-28.0,-29.0,3.0,3.0,0.0,2.0,-1.0,0.0
1701619623.9742093,17.0,29.0,-12.0,-13.0,0.0,-1.0,0.0,2.0
1701619623.9742093,-6.0,-24.0,9.0,-11.0,-8.0,-4.0,-7.0,-5.0
1701619623.9742093,6.0,35.0,-8.0,-6.0,2.0,2.0,2.0,-5.0
1701619623.9742093,-26.0,-2.0,-6.0,2.0,-2.0,-5.0,-6.0,-1.0
1701619623.9842312,9.0,-22.0,2.0,10.0,2.0,1.0,0.0,4.0
1701619623.9842312,10.0,0.0,-1.0,5.0,2.0,0.0,0.0,-2.0
1701619623.9842312,11.0,19.0,-7.0,-17.0,-5.0,-2.0,4.0,-1.0
1701619623.9842312,-18.0,-33.0,-8.0,-6.0,-5.0,-3.0,-9.0,-4.0
1701619624.014208,1.0,-5.0,11.0,1.0,-2.0,-1.0,3.0,2.0
1701619624.014208,-1.0,0.0,-45.0,-17.0,3.0,0.0,-3.0,-2.0
1701619624.014208,2.0,-8.0,14.0,24.0,-1.0,-3.0,-2.0,-3.0
1701619624.014208,-10.0,5.0,5.0,5.0,-2.0,1.0,2.0,1.0
1701619624.024263,-15.0,-12.0,13.0,-15.0,-12.0,-7.0,-4.0,-6.0
1701619624.024263,2.0,8.0,11.0,7.0,2.0,4.0,0.0,2.0
1701619624.024263,-5.0,-7.0,-7.0,-9.0,1.0,-1.0,1.0,-1.0
1701619624.024263,-1.0,-24.0,-53.0,-11.0,-1.0,-3.0,1.0,3.0
1701619624.0446126,17.0,9.0,17.0,26.0,7.0,2.0,1.0,0.0
1701619624.0446126,-10.0,-4.0,-11.0,-13.0,-5.0,-3.0,2.0,-2.0
1701619624.0446126,0.0,-9.0,4.0,0.0,-2.0,-5.0,-2.0,1.0
1701619624.0446126,1.0,-38.0,-26.0,-16.0,-1.0,1.0,2.0,-6.0
1701619624.0746338,9.0,30.0,13.0,17.0,-2.0,2.0,11.0,5.0
1701619624.0746338,23.0,27.0,2.0,-6.0,3.0,-4.0,-4.0,2.0
1701619624.0746338,-11.0,-35.0,14.0,9.0,1.0,-1.0,-7.0,-3.0
1701619624.0746338,20.0,4.0,-37.0,-23.0,-4.0,-2.0,-5.0,-7.0
1701619624.0746338,-23.0,17.0,-22.0,-14.0,2.0,4.0,6.0,2.0
1701619624.0846374,-1.0,11.0,49.0,13.0,-7.0,-8.0,-4.0,-5.0
1701619624.0846374,13.0,-54.0,-10.0,-9.0,-1.0,-1.0,-4.0,-1.0
1701619624.0846374,5.0,36.0,0.0,17.0,0.0,-2.0,1.0,-1.0
1701619624.1049058,4.0,34.0,-8.0,10.0,4.0,1.0,-8.0,0.0
1701619624.1049058,-5.0,11.0,-3.0,-12.0,-1.0,0.0,4.0,2.0
1701619624.1246321,-10.0,-55.0,-66.0,-39.0,-10.0,-4.0,-5.0,-4.0
1701619624.1246321,10.0,0.0,45.0,34.0,5.0,-1.0,-8.0,5.0
1701619624.134652,25.0,-9.0,3.0,1.0,-1.0,-1.0,2.0,3.0
1701619624.134652,-30.0,10.0,-24.0,3.0,-1.0,-1.0,-4.0,-8.0
1701619624.134652,-3.0,14.0,-3.0,-16.0,1.0,1.0,3.0,1.0
1701619624.134652,24.0,51.0,23.0,-5.0,-5.0,6.0,19.0,5.0
1701619624.1446972,-9.0,-58.0,0.0,-6.0,-4.0,-9.0,-19.0,-10.0
1701619624.1446972,1.0,-7.0,4.0,10.0,0.0,-1.0,-5.0,11.0
1701619624.1547148,-9.0,21.0,-36.0,-18.0,-3.0,-2.0,-1.0,-15.0
1701619624.1547148,9.0,40.0,30.0,6.0,-4.0,-4.0,11.0,2.0
1701619624.1649406,25.0,48.0,6.0,-3.0,1.0,3.0,14.0,5.0
1701619624.1649406,-28.0,-45.0,-37.0,-18.0,-2.0,0.0,-10.0,-4.0
1701619624.1649406,-12.0,-11.0,18.0,20.0,6.0,0.0,-22.0,-5.0
1701619624.1649406,-8.0,11.0,26.0,18.0,-1.0,-5.0,-1.0,-1.0
1701619624.1946654,2.0,-57.0,-3.0,-8.0,-4.0,-2.0,4.0,6.0
1701619624.1946654,7.0,-4.0,-31.0,-8.0,-1.0,-1.0,-8.0,14.0
1701619624.1946654,-5.0,29.0,34.0,17.0,2.0,2.0,7.0,-17.0
1701619624.1946654,-15.0,-51.0,-14.0,-7.0,2.0,2.0,-10.0,-10.0
1701619624.2048495,21.0,24.0,3.0,-9.0,-1.0,-3.0,-13.0,-4.0
1701619624.2048495,-30.0,-23.0,10.0,-3.0,-5.0,-7.0,2.0,12.0
1701619624.2146785,16.0,27.0,7.0,12.0,0.0,4.0,8.0,8.0
1701619624.2146785,-26.0,-36.0,-18.0,-18.0,-5.0,-7.0,2.0,-1.0
1701619624.224895,-12.0,-6.0,-8.0,3.0,1.0,3.0,6.0,-7.0
1701619624.224895,32.0,14.0,11.0,3.0,1.0,5.0,6.0,-1.0
1701619624.224895,-19.0,10.0,11.0,-6.0,-5.0,-7.0,-5.0,3.0
1701619624.224895,-8.0,-9.0,-3.0,3.0,3.0,0.0,-5.0,-7.0
1701619624.264978,-3.0,-8.0,4.0,3.0,-4.0,-4.0,-1.0,2.0
1701619624.264978,12.0,4.0,-50.0,-33.0,-1.0,1.0,5.0,-10.0
1701619624.264978,-1.0,-5.0,-1.0,12.0,-5.0,-4.0,-8.0,0.0
1701619624.264978,-5.0,-3.0,36.0,15.0,2.0,1.0,12.0,4.0
1701619624.2749712,-6.0,-13.0,-16.0,6.0,2.0,1.0,3.0,-5.0
1701619624.2749712,10.0,9.0,-17.0,-5.0,-2.0,-3.0,-3.0,-6.0
1701619624.2749712,6.0,-4.0,21.0,9.0,1.0,1.0,11.0,5.0
1701619624.2749712,-2.0,11.0,-44.0,-23.0,2.0,3.0,-4.0,0.0
1701619624.284971,-9.0,-10.0,12.0,10.0,-9.0,-5.0,-4.0,-6.0
1701619624.284971,15.0,8.0,25.0,14.0,5.0,1.0,2.0,-3.0
1701619624.2949724,-6.0,43.0,-14.0,-14.0,-1.0,1.0,2.0,1.0
1701619624.2949724,-5.0,-10.0,-17.0,-9.0,-5.0,-1.0,1.0,5.0
1701619624.3053489,-13.0,-2.0,30.0,-4.0,2.0,-1.0,-4.0,-2.0
1701619624.3053489,8.0,15.0,-8.0,21.0,-1.0,-4.0,-8.0,-6.0
1701619624.3053489,5.0,3.0,-2.0,1.0,4.0,0.0,4.0,5.0
1701619624.3053489,0.0,8.0,1.0,9.0,8.0,2.0,-6.0,0.0
1701619624.3253217,2.0,3.0,-9.0,-23.0,-4.0,-2.0,-3.0,0.0
1701619624.3253217,-8.0,-10.0,33.0,9.0,-4.0,-2.0,4.0,-5.0
1701619624.3253217,5.0,-17.0,-51.0,-27.0,-7.0,-3.0,0.0,2.0
1701619624.3349788,2.0,4.0,-1.0,12.0,-2.0,0.0,-4.0,0.0
1701619624.3449728,-7.0,-29.0,-21.0,-1.0,3.0,-1.0,1.0,0.0
1701619624.3449728,-1.0,3.0,28.0,10.0,-4.0,-1.0,-2.0,-4.0
1701619624.3449728,-6.0,-14.0,8.0,-9.0,-6.0,-5.0,-1.0,-1.0
1701619624.3449728,1.0,2.0,5.0,-8.0,-6.0,-5.0,-6.0,0.0
1701619624.365412,-2.0,10.0,-8.0,0.0,2.0,1.0,-2.0,-2.0
1701619624.365412,4.0,-4.0,-20.0,-23.0,-5.0,-1.0,-2.0,-2.0
1701619624.365412,6.0,1.0,-13.0,1.0,7.0,2.0,-1.0,1.0
1701619624.365412,6.0,12.0,10.0,5.0,5.0,1.0,-1.0,0.0
1701619624.3850257,-7.0,-15.0,26.0,16.0,-3.0,-3.0,0.0,0.0
1701619624.3850257,4.0,9.0,-5.0,-13.0,-8.0,-2.0,-3.0,-1.0
1701619624.3850257,-7.0,12.0,19.0,2.0,-3.0,-1.0,-1.0,-1.0
1701619624.3850257,18.0,-3.0,-18.0,-15.0,-6.0,-4.0,-1.0,3.0
1701619624.4084127,-10.0,-3.0,4.0,-1.0,3.0,2.0,0.0,-4.0
1701619624.4084127,0.0,-6.0,0.0,4.0,5.0,2.0,0.0,1.0
1701619624.4156535,15.0,4.0,-19.0,-13.0,-6.0,-3.0,-2.0,0.0
1701619624.4156535,-1.0,15.0,37.0,14.0,3.0,-1.0,-5.0,-2.0
1701619624.4311926,3.0,-1.0,-12.0,-3.0,-7.0,-3.0,-3.0,-1.0
1701619624.4311926,-2.0,-3.0,26.0,3.0,2.0,0.0,1.0,-1.0
1701619624.4321961,-8.0,2.0,-10.0,3.0,1.0,2.0,1.0,-2.0
1701619624.4331808,-2.0,-34.0,-23.0,-4.0,-1.0,-1.0,-4.0,-3.0
1701619624.4658191,1.0,37.0,49.0,36.0,12.0,4.0,3.0,4.0
1701619624.4658191,-9.0,-26.0,-63.0,-49.0,-10.0,-5.0,-7.0,-8.0
1701619624.4658191,-5.0,12.0,25.0,12.0,2.0,0.0,3.0,4.0
1701619624.4658191,-3.0,-7.0,-4.0,0.0,-2.0,-2.0,-3.0,-2.0
1701619624.4658191,15.0,-14.0,6.0,-2.0,-6.0,-5.0,-2.0,-2.0
1701619624.4658191,-15.0,8.0,4.0,14.0,14.0,4.0,-1.0,-4.0
1701619624.4658191,7.0,6.0,19.0,0.0,-7.0,-5.0,-1.0,2.0
1701619624.4658191,-8.0,2.0,-9.0,-2.0,-5.0,-3.0,-2.0,-4.0
1701619624.4862459,5.0,24.0,-21.0,-12.0,2.0,1.0,1.0,3.0
1701619624.4862459,10.0,-28.0,-10.0,4.0,-2.0,-4.0,0.0,1.0
1701619624.4862459,-28.0,-69.0,-18.0,-7.0,2.0,-2.0,-3.0,-3.0
1701619624.4862459,0.0,36.0,36.0,17.0,1.0,2.0,1.0,0.0
1701619624.5058217,-5.0,-4.0,-83.0,-44.0,-7.0,-3.0,-2.0,-3.0
1701619624.5058217,4.0,14.0,22.0,4.0,6.0,3.0,5.0,3.0
1701619624.5058217,4.0,15.0,12.0,14.0,3.0,-1.0,-1.0,-2.0
1701619624.5058217,5.0,-27.0,-5.0,-4.0,0.0,-3.0,-2.0,-1.0
1701619624.5262296,-3.0,6.0,24.0,9.0,1.0,1.0,-3.0,-4.0
1701619624.5262296,-18.0,-11.0,3.0,16.0,-5.0,-6.0,-4.0,-3.0
1701619624.5262296,10.0,-1.0,-6.0,-10.0,-5.0,-3.0,-2.0,-1.0
1701619624.5262296,-21.0,-3.0,6.0,3.0,-2.0,0.0,-1.0,-2.0
1701619624.546678,6.0,-7.0,-43.0,-17.0,-2.0,-3.0,1.0,0.0
1701619624.546678,16.0,28.0,24.0,11.0,2.0,7.0,4.0,1.0
1701619624.546678,5.0,-31.0,-32.0,-8.0,-1.0,0.0,-5.0,0.0
1701619624.546678,-19.0,34.0,3.0,-10.0,-13.0,-7.0,-4.0,-4.0
1701619624.5662389,10.0,-18.0,27.0,2.0,-2.0,-3.0,0.0,0.0
1701619624.5662389,21.0,12.0,-2.0,-3.0,1.0,-1.0,7.0,2.0
1701619624.5662389,1.0,24.0,76.0,68.0,14.0,6.0,2.0,-1.0
1701619624.5662389,-3.0,-32.0,-95.0,-86.0,-12.0,-3.0,-3.0,-4.0
1701619624.586646,-11.0,1.0,27.0,20.0,-6.0,-4.0,1.0,-2.0
1701619624.586646,11.0,-18.0,4.0,8.0,-3.0,-5.0,-2.0,0.0
1701619624.586646,14.0,40.0,28.0,6.0,8.0,1.0,-3.0,0.0
1701619624.586646,-1.0,26.0,-25.0,10.0,5.0,-2.0,5.0,-1.0
1701619624.6066587,-10.0,-13.0,-11.0,-7.0,-1.0,2.0,1.0,-4.0
1701619624.6066587,-12.0,-1.0,-34.0,-36.0,-9.0,-1.0,3.0,-1.0
1701619624.6066587,-2.0,0.0,-20.0,-20.0,-4.0,-2.0,9.0,-2.0
1701619624.6066587,-11.0,-27.0,35.0,20.0,0.0,-1.0,-30.0,-6.0
1701619624.6262414,16.0,1.0,8.0,11.0,6.0,4.0,-4.0,2.0
1701619624.6262414,-11.0,26.0,10.0,15.0,2.0,-2.0,-1.0,-4.0
1701619624.6262414,-43.0,-77.0,-25.0,-17.0,-7.0,-2.0,23.0,1.0
1701619624.6262414,9.0,4.0,28.0,10.0,-2.0,-6.0,-27.0,-5.0
1701619624.646589,-2.0,10.0,-11.0,-2.0,-2.0,-8.0,-10.0,4.0
1701619624.646589,7.0,-5.0,21.0,7.0,2.0,0.0,3.0,-2.0
1701619624.646589,10.0,-5.0,-22.0,-10.0,-5.0,-3.0,-7.0,-6.0
1701619624.646589,28.0,-12.0,18.0,0.0,1.0,5.0,4.0,4.0
1701619624.6665492,-2.0,-6.0,-36.0,-16.0,-4.0,-7.0,-12.0,-13.0
1701619624.6665492,-18.0,-8.0,-2.0,7.0,-3.0,-3.0,-5.0,1.0
1701619624.6665492,-8.0,30.0,-12.0,-19.0,-6.0,1.0,3.0,2.0
1701619624.6665492,27.0,23.0,20.0,28.0,2.0,-2.0,10.0,6.0
1701619624.6862383,-57.0,-53.0,-9.0,-14.0,-4.0,-1.0,-1.0,-10.0
1701619624.6862383,20.0,0.0,-18.0,-10.0,-5.0,-2.0,-10.0,-7.0
1701619624.6862383,-19.0,-15.0,-14.0,-12.0,-4.0,-3.0,-22.0,6.0
1701619624.6862383,5.0,24.0,-1.0,5.0,5.0,0.0,7.0,0.0
1701619624.7066336,11.0,5.0,37.0,23.0,3.0,-2.0,3.0,3.0
1701619624.7066336,-5.0,-18.0,-14.0,-12.0,3.0,4.0,6.0,-2.0
1701619624.7066336,6.0,-1.0,0.0,8.0,-6.0,-2.0,-2.0,-4.0
1701619624.7066336,-29.0,9.0,-23.0,-7.0,2.0,0.0,5.0,-3.0
1701619624.7362382,-5.0,-2.0,3.0,-6.0,-5.0,-2.0,6.0,-2.0
1701619624.7362382,-6.0,10.0,2.0,6.0,4.0,2.0,-3.0,1.0
1701619624.7362382,21.0,16.0,-8.0,2.0,1.0,0.0,-8.0,-4.0
1701619624.7362382,-2.0,-10.0,35.0,13.0,-4.0,-3.0,4.0,-1.0
1701619624.746509,1.0,7.0,1.0,24.0,13.0,7.0,3.0,1.0
1701619624.746509,-5.0,-5.0,9.0,-4.0,-11.0,-6.0,-10.0,-4.0
1701619624.7564788,-8.0,-17.0,-34.0,-53.0,-10.0,-5.0,-4.0,-3.0
1701619624.7564788,-3.0,-27.0,-21.0,-10.0,-7.0,-1.0,7.0,-2.0
1701619624.766529,3.0,8.0,-9.0,-15.0,14.0,10.0,3.0,6.0
1701619624.766529,1.0,-4.0,-5.0,5.0,0.0,2.0,-1.0,1.0
1701619624.7762423,6.0,9.0,65.0,53.0,6.0,0.0,0.0,-2.0
1701619624.7762423,8.0,21.0,-26.0,1.0,-6.0,-6.0,1.0,-1.0
1701619624.7962418,-9.0,4.0,5.0,-8.0,12.0,1.0,-4.0,-7.0
1701619624.7962418,-11.0,-23.0,-35.0,-11.0,4.0,1.0,-1.0,-1.0
1701619624.7962418,22.0,-11.0,3.0,-8.0,2.0,4.0,2.0,1.0
1701619624.7962418,20.0,-3.0,38.0,18.0,2.0,3.0,3.0,3.0
1701619624.806273,7.0,2.0,1.0,23.0,-4.0,-4.0,-2.0,-1.0
1701619624.806273,0.0,4.0,-15.0,-14.0,-4.0,-3.0,-2.0,-5.0
1701619624.806273,3.0,20.0,12.0,12.0,7.0,2.0,0.0,1.0
1701619624.806273,9.0,-9.0,-18.0,-5.0,0.0,1.0,2.0,1.0
1701619624.826314,4.0,2.0,1.0,-8.0,-5.0,-1.0,3.0,1.0
1701619624.826314,0.0,-22.0,15.0,16.0,7.0,0.0,-1.0,2.0
1701619624.826314,11.0,13.0,-10.0,-4.0,-6.0,-4.0,-5.0,-4.0
1701619624.826314,-39.0,-19.0,5.0,-7.0,11.0,7.0,1.0,-1.0
1701619624.8562384,8.0,13.0,19.0,-4.0,-6.0,-3.0,1.0,4.0
1701619624.8562384,-10.0,-1.0,-11.0,1.0,-9.0,-7.0,-3.0,2.0
1701619624.8562384,6.0,28.0,-5.0,-13.0,9.0,2.0,-1.0,2.0
1701619624.8562384,-42.0,-58.0,0.0,20.0,9.0,5.0,1.0,-4.0
1701619624.8664925,-4.0,2.0,2.0,-14.0,-12.0,-5.0,-3.0,-2.0
1701619624.8664925,16.0,11.0,27.0,-20.0,-6.0,-4.0,-3.0,-1.0
1701619624.8664925,13.0,7.0,-25.0,2.0,-4.0,-2.0,0.0,0.0
1701619624.8664925,3.0,9.0,17.0,-12.0,-8.0,-2.0,-2.0,-4.0
1701619624.8865366,-8.0,4.0,-2.0,-10.0,-7.0,-4.0,-1.0,-2.0
1701619624.8865366,8.0,10.0,-3.0,20.0,5.0,1.0,1.0,3.0
1701619624.9162383,-15.0,0.0,21.0,-7.0,-6.0,-4.0,-4.0,-4.0
1701619624.9162383,20.0,16.0,-39.0,12.0,2.0,-1.0,-2.0,1.0
1701619624.9162383,-9.0,4.0,10.0,-23.0,-5.0,-1.0,-1.0,-1.0
1701619624.9162383,3.0,-11.0,5.0,15.0,-2.0,-3.0,-2.0,-2.0
1701619624.9162383,5.0,-15.0,-18.0,3.0,1.0,2.0,-2.0,-1.0
1701619624.9162383,-39.0,-5.0,-13.0,-43.0,-5.0,-4.0,-3.0,-5.0
1701619624.9265082,16.0,-19.0,-8.0,13.0,-1.0,-1.0,0.0,1.0
1701619624.9265082,-14.0,-18.0,43.0,8.0,-2.0,-6.0,-3.0,-4.0
1701619624.9265082,-9.0,-38.0,-48.0,-11.0,3.0,1.0,1.0,1.0
1701619624.9265082,-48.0,-33.0,18.0,13.0,-3.0,-4.0,-5.0,-9.0
1701619624.9472835,11.0,-12.0,-6.0,-14.0,-7.0,-1.0,-1.0,0.0
1701619624.9472835,10.0,5.0,7.0,-3.0,4.0,4.0,2.0,2.0
1701619624.9627194,11.0,11.0,-6.0,9.0,3.0,3.0,3.0,3.0
1701619624.9627194,38.0,23.0,11.0,4.0,6.0,-3.0,-3.0,-1.0
1701619624.968336,-25.0,13.0,-32.0,-4.0,-3.0,1.0,-1.0,-2.0
1701619624.968336,-2.0,-9.0,24.0,9.0,-5.0,-2.0,-1.0,-2.0
1701619624.968336,-12.0,6.0,-18.0,-19.0,2.0,0.0,-1.0,-2.0
1701619624.968336,16.0,40.0,6.0,-8.0,-3.0,0.0,1.0,2.0
1701619624.9883375,-10.0,-24.0,18.0,16.0,-2.0,-4.0,-2.0,-2.0
1701619624.9883375,0.0,20.0,-3.0,7.0,1.0,-3.0,-4.0,-3.0
1701619624.9883375,-10.0,-2.0,1.0,9.0,-6.0,-1.0,1.0,0.0
1701619624.9883375,1.0,-40.0,12.0,1.0,1.0,0.0,-1.0,1.0
1701619624.9986644,11.0,3.0,-20.0,-1.0,2.0,-1.0,-1.0,-2.0
1701619624.9986644,-10.0,5.0,-33.0,-33.0,0.0,2.0,-1.0,-2.0
1701619625.0286894,-16.0,6.0,48.0,21.0,7.0,2.0,1.0,-1.0
1701619625.0286894,-12.0,-42.0,-63.0,-16.0,-25.0,-10.0,-5.0,-5.0
1701619625.0286894,1.0,11.0,4.0,7.0,12.0,2.0,-2.0,1.0
1701619625.0286894,-5.0,2.0,7.0,-6.0,-8.0,-2.0,-3.0,-3.0
1701619625.0286894,-5.0,-2.0,-11.0,3.0,5.0,-1.0,-2.0,-4.0
1701619625.0286894,12.0,-13.0,-17.0,-12.0,7.0,4.0,4.0,3.0
1701619625.0490391,10.0,18.0,20.0,-7.0,-13.0,-6.0,-3.0,-2.0
1701619625.0490391,-5.0,-12.0,-13.0,-2.0,6.0,3.0,3.0,3.0
1701619625.0490391,-13.0,-15.0,29.0,12.0,-11.0,-8.0,-7.0,-6.0
1701619625.0490391,-7.0,3.0,-16.0,4.0,3.0,0.0,1.0,0.0
1701619625.058689,9.0,16.0,-8.0,-13.0,-7.0,-5.0,-4.0,-4.0
1701619625.058689,-4.0,0.0,18.0,-7.0,-4.0,-1.0,-2.0,-1.0
1701619625.0687175,5.0,9.0,-33.0,-13.0,-6.0,-1.0,-1.0,1.0
1701619625.0687175,26.0,0.0,10.0,1.0,8.0,1.0,-1.0,0.0
1701619625.0890799,-13.0,29.0,15.0,9.0,4.0,2.0,-1.0,-1.0
1701619625.0890799,-26.0,-20.0,-7.0,10.0,4.0,2.0,1.0,-5.0
1701619625.0890799,7.0,8.0,-1.0,-9.0,-6.0,-1.0,4.0,2.0
1701619625.0890799,1.0,6.0,16.0,11.0,0.0,-1.0,0.0,2.0
1701619625.1090066,10.0,1.0,-30.0,-20.0,0.0,2.0,0.0,0.0
1701619625.1090066,-3.0,12.0,21.0,10.0,-2.0,-1.0,-1.0,-2.0
1701619625.1090066,-6.0,4.0,-24.0,-5.0,-3.0,-5.0,-4.0,-7.0
1701619625.1090066,-3.0,9.0,24.0,2.0,2.0,-1.0,0.0,-1.0
1701619625.1287181,10.0,-2.0,-6.0,5.0,2.0,3.0,3.0,4.0
1701619625.1287181,9.0,9.0,-31.0,-31.0,-2.0,-4.0,-2.0,0.0
1701619625.1287181,-20.0,-8.0,34.0,12.0,3.0,3.0,1.0,0.0
1701619625.1287181,20.0,40.0,20.0,-6.0,-2.0,-2.0,0.0,2.0
1701619625.1490693,-12.0,-12.0,-2.0,45.0,-1.0,-3.0,-3.0,-2.0
1701619625.1490693,16.0,19.0,10.0,-19.0,-4.0,-2.0,0.0,-1.0
1701619625.1490693,-13.0,-10.0,-20.0,-8.0,-2.0,-2.0,-3.0,-1.0
1701619625.1490693,-3.0,-6.0,-15.0,-17.0,-10.0,-4.0,-4.0,-3.0
1701619625.1690903,-1.0,-11.0,30.0,37.0,8.0,0.0,0.0,0.0
1701619625.1690903,-4.0,6.0,-5.0,-5.0,-4.0,0.0,0.0,0.0
1701619625.1690903,18.0,4.0,14.0,6.0,2.0,-2.0,-3.0,-3.0
1701619625.1690903,-34.0,24.0,14.0,-3.0,2.0,3.0,1.0,0.0
1701619625.1887145,-7.0,-74.0,-29.0,-27.0,-9.0,-6.0,-6.0,-3.0
1701619625.1887145,-3.0,17.0,2.0,32.0,7.0,1.0,-2.0,-1.0
1701619625.1887145,-12.0,-49.0,17.0,-8.0,-7.0,-2.0,-3.0,-4.0
1701619625.1887145,25.0,15.0,-33.0,5.0,5.0,2.0,3.0,1.0
1701619625.2086833,6.0,31.0,13.0,-11.0,-1.0,-1.0,-3.0,-1.0
1701619625.2086833,0.0,-8.0,-10.0,3.0,-4.0,-1.0,-1.0,-3.0
1701619625.2086833,25.0,10.0,22.0,12.0,3.0,-1.0,-2.0,3.0
1701619625.2086833,-9.0,-6.0,-5.0,0.0,-10.0,-3.0,-3.0,-3.0
1701619625.2290637,6.0,-7.0,-6.0,-17.0,6.0,2.0,2.0,1.0
1701619625.2290637,-3.0,-5.0,-21.0,13.0,-9.0,0.0,1.0,-1.0
1701619625.2290637,-2.0,19.0,1.0,11.0,24.0,7.0,5.0,1.0
1701619625.2290637,-13.0,-8.0,5.0,-6.0,-18.0,-9.0,-6.0,-4.0
1701619625.258686,-10.0,10.0,4.0,-5.0,2.0,1.0,1.0,0.0
1701619625.258686,8.0,-2.0,5.0,-2.0,4.0,0.0,-3.0,1.0
1701619625.258686,25.0,8.0,-37.0,-30.0,0.0,2.0,0.0,-1.0
1701619625.258686,-21.0,-8.0,22.0,34.0,5.0,1.0,1.0,1.0
1701619625.2687323,-7.0,-26.0,-1.0,-28.0,-14.0,-8.0,-5.0,-2.0
1701619625.2687323,-11.0,-68.0,-8.0,-4.0,1.0,-2.0,-4.0,-6.0
1701619625.2687323,3.0,-4.0,20.0,5.0,-4.0,-1.0,-3.0,-3.0
1701619625.2687323,20.0,1.0,-23.0,-22.0,4.0,-1.0,-2.0,-1.0
1701619625.2986827,26.0,17.0,32.0,31.0,5.0,2.0,3.0,3.0
1701619625.2986827,-32.0,36.0,-60.0,-23.0,-3.0,-2.0,-2.0,-3.0
1701619625.2986827,-25.0,9.0,20.0,-4.0,-7.0,-2.0,0.0,0.0
1701619625.2986827,2.0,-35.0,-68.0,-29.0,-8.0,-4.0,-4.0,-7.0
1701619625.3087165,-14.0,5.0,9.0,7.0,-4.0,-4.0,-4.0,-6.0
1701619625.3087165,13.0,-7.0,-1.0,-8.0,5.0,1.0,-1.0,3.0
1701619625.3087165,-3.0,1.0,-11.0,-15.0,2.0,0.0,0.0,1.0
1701619625.3087165,3.0,22.0,39.0,-6.0,1.0,3.0,3.0,3.0
1701619625.329088,-12.0,6.0,-14.0,16.0,-3.0,-6.0,-4.0,-5.0
1701619625.329088,8.0,8.0,14.0,-3.0,5.0,4.0,4.0,3.0
1701619625.329088,-4.0,3.0,2.0,23.0,-9.0,-5.0,-3.0,-3.0
1701619625.329088,20.0,16.0,26.0,4.0,7.0,3.0,-2.0,2.0
1701619625.3490565,-32.0,-48.0,-28.0,-10.0,0.0,1.0,-2.0,-6.0
1701619625.3490565,-1.0,-23.0,-1.0,-31.0,-6.0,-3.0,1.0,1.0
1701619625.3586862,-19.0,-14.0,-6.0,1.0,-3.0,-3.0,2.0,-2.0
1701619625.3586862,-11.0,-22.0,9.0,2.0,-8.0,-7.0,-16.0,-3.0
1701619625.3686814,-2.0,26.0,-3.0,15.0,6.0,4.0,-13.0,-10.0
1701619625.3686814,13.0,39.0,14.0,25.0,5.0,3.0,3.0,6.0
1701619625.3686814,-1.0,-15.0,-43.0,-50.0,-9.0,-3.0,-9.0,-1.0
1701619625.3686814,32.0,10.0,3.0,-1.0,2.0,0.0,4.0,1.0
1701619625.3889205,5.0,33.0,1.0,-13.0,-3.0,-3.0,2.0,3.0
1701619625.3889205,10.0,2.0,26.0,17.0,4.0,0.0,-3.0,-4.0
1701619625.3889205,-9.0,12.0,-4.0,-7.0,-5.0,-3.0,-3.0,-2.0
1701619625.3889205,2.0,-2.0,2.0,19.0,7.0,4.0,2.0,2.0
1701619625.4089751,-6.0,-15.0,-12.0,-13.0,-7.0,-3.0,1.0,0.0
1701619625.4089751,13.0,5.0,15.0,-4.0,-2.0,-1.0,4.0,-1.0
1701619625.4089751,25.0,-2.0,38.0,40.0,6.0,2.0,4.0,5.0
1701619625.4089751,-24.0,43.0,-14.0,-48.0,3.0,3.0,5.0,0.0
1701619625.4386826,-33.0,-43.0,-13.0,27.0,-9.0,-9.0,-3.0,-8.0
1701619625.4386826,28.0,17.0,8.0,-12.0,-8.0,0.0,-3.0,0.0
1701619625.4386826,-26.0,-10.0,26.0,15.0,1.0,-1.0,0.0,-4.0
1701619625.4386826,-5.0,-2.0,-69.0,-48.0,-2.0,-2.0,0.0,-3.0
1701619625.449005,25.0,1.0,-11.0,-14.0,4.0,4.0,16.0,8.0
1701619625.449005,-5.0,10.0,7.0,14.0,-3.0,-2.0,-8.0,-4.0
1701619625.4589489,1.0,19.0,-13.0,-6.0,1.0,-3.0,-6.0,2.0
1701619625.4589489,-22.0,-17.0,20.0,29.0,6.0,2.0,12.0,-2.0
1701619625.4730642,15.0,75.0,46.0,3.0,-8.0,-3.0,-18.0,4.0
1701619625.4730642,-27.0,-50.0,-46.0,-17.0,-8.0,-3.0,24.0,-9.0
1701619625.4741504,6.0,25.0,22.0,12.0,0.0,2.0,-10.0,0.0
1701619625.4741504,2.0,-5.0,-8.0,2.0,1.0,-3.0,-14.0,-7.0
1701619625.495477,5.0,-8.0,-20.0,-9.0,3.0,3.0,7.0,6.0
1701619625.4964993,-1.0,0.0,12.0,1.0,-3.0,-2.0,-8.0,-1.0
1701619625.4974942,-25.0,-3.0,-5.0,-8.0,-3.0,-3.0,5.0,-5.0
1701619625.4974942,29.0,6.0,-16.0,3.0,2.0,1.0,0.0,3.0
1701619625.5213544,-16.0,-14.0,15.0,18.0,0.0,-2.0,-5.0,-4.0
1701619625.5213544,-37.0,-30.0,1.0,2.0,-3.0,-2.0,-2.0,-2.0
1701619625.5313554,3.0,-47.0,-42.0,12.0,-7.0,-5.0,-4.0,-4.0
1701619625.5313554,-15.0,-8.0,31.0,-29.0,-2.0,2.0,6.0,-1.0
1701619625.5313554,40.0,50.0,-18.0,3.0,-3.0,-2.0,8.0,3.0
1701619625.5313554,5.0,10.0,13.0,3.0,4.0,-2.0,-15.0,-1.0
1701619625.5313554,5.0,21.0,49.0,28.0,3.0,2.0,-8.0,-4.0
1701619625.5313554,5.0,-4.0,-24.0,13.0,-7.0,-7.0,-12.0,-1.0
1701619625.551797,-3.0,-18.0,0.0,-32.0,10.0,10.0,13.0,-1.0
1701619625.551797,6.0,29.0,11.0,25.0,-9.0,-3.0,4.0,-1.0
1701619625.551797,-10.0,-10.0,-33.0,-39.0,-5.0,-3.0,-10.0,-5.0
1701619625.551797,-29.0,1.0,34.0,31.0,-3.0,-3.0,1.0,0.0
1701619625.5713909,-11.0,-53.0,2.0,-10.0,2.0,-2.0,-13.0,-4.0
1701619625.5713909,-7.0,-3.0,-15.0,4.0,2.0,-1.0,-6.0,-6.0
1701619625.5713909,7.0,-13.0,0.0,-12.0,4.0,5.0,6.0,8.0
1701619625.5713909,6.0,9.0,9.0,5.0,-4.0,-1.0,7.0,0.0
1701619625.591647,8.0,2.0,-2.0,3.0,0.0,1.0,4.0,3.0
1701619625.591647,16.0,5.0,-11.0,-14.0,-1.0,1.0,-9.0,2.0
1701619625.591647,-4.0,43.0,19.0,8.0,-7.0,-6.0,-2.0,-6.0
1701619625.591647,-13.0,-39.0,-67.0,-17.0,-6.0,-5.0,-6.0,-4.0
1701619625.6117084,-4.0,10.0,6.0,20.0,10.0,5.0,4.0,-2.0
1701619625.6117084,8.0,5.0,-11.0,-11.0,0.0,2.0,-1.0,3.0
1701619625.6117084,-1.0,22.0,-3.0,-7.0,-4.0,-5.0,-1.0,-2.0
1701619625.6117084,8.0,-34.0,33.0,26.0,8.0,5.0,7.0,0.0
1701619625.6314132,-14.0,16.0,59.0,7.0,-7.0,-4.0,1.0,1.0
1701619625.6314132,-26.0,11.0,-67.0,-7.0,0.0,0.0,-3.0,-4.0
1701619625.641401,13.0,10.0,13.0,12.0,7.0,4.0,12.0,3.0
1701619625.641401,8.0,2.0,11.0,5.0,-2.0,-2.0,-13.0,-3.0
1701619625.651624,10.0,-24.0,9.0,2.0,7.0,2.0,-4.0,4.0
1701619625.651624,-7.0,52.0,28.0,27.0,-8.0,-7.0,-2.0,-5.0
1701619625.651624,-20.0,-75.0,-124.0,-79.0,-7.0,-2.0,2.0,-6.0
1701619625.651624,6.0,7.0,83.0,66.0,-4.0,-4.0,-4.0,-5.0
1701619625.6720629,5.0,-11.0,-49.0,-69.0,-6.0,-1.0,0.0,2.0
1701619625.6720629,-17.0,-34.0,11.0,32.0,-10.0,-7.0,-7.0,-7.0
1701619625.6720629,-12.0,38.0,16.0,-21.0,4.0,2.0,1.0,-1.0
1701619625.6720629,-15.0,-67.0,-21.0,-11.0,-9.0,-7.0,-7.0,-5.0
1701619625.6917772,8.0,-28.0,10.0,38.0,-5.0,-5.0,-3.0,-5.0
1701619625.6917772,-28.0,-16.0,-4.0,-26.0,6.0,1.0,11.0,1.0
1701619625.7117724,-2.0,-3.0,-21.0,2.0,-2.0,-2.0,-14.0,-2.0
1701619625.7117724,14.0,16.0,-7.0,-22.0,2.0,1.0,-3.0,2.0
1701619625.7117724,15.0,16.0,-1.0,-12.0,-6.0,-2.0,3.0,0.0
1701619625.7117724,-7.0,-38.0,1.0,-3.0,2.0,-3.0,-3.0,1.0
1701619625.7117724,16.0,-9.0,91.0,61.0,12.0,3.0,0.0,3.0
1701619625.7117724,-13.0,22.0,-56.0,-33.0,-14.0,-2.0,5.0,0.0
1701619625.7417698,13.0,20.0,-15.0,-3.0,1.0,-3.0,4.0,0.0
1701619625.7417698,-13.0,-26.0,49.0,-7.0,2.0,3.0,-10.0,-1.0
1701619625.7517667,8.0,-5.0,-21.0,-43.0,-6.0,-3.0,-1.0,0.0
1701619625.7517667,6.0,21.0,43.0,20.0,4.0,1.0,-1.0,-2.0
1701619625.7517667,-1.0,29.0,2.0,19.0,5.0,2.0,-5.0,2.0
1701619625.7517667,-25.0,-31.0,-47.0,-30.0,-7.0,-1.0,8.0,-4.0
1701619625.7517667,-15.0,-28.0,55.0,30.0,6.0,0.0,1.0,0.0
1701619625.7517667,0.0,10.0,-16.0,-14.0,-9.0,-5.0,7.0,-1.0
1701619625.7721775,0.0,3.0,4.0,8.0,0.0,-4.0,-22.0,-5.0
1701619625.7721775,-11.0,25.0,-30.0,-23.0,13.0,5.0,0.0,-2.0
1701619625.7721775,7.0,-7.0,-26.0,-36.0,-15.0,-2.0,-2.0,0.0
1701619625.7721775,-17.0,6.0,22.0,33.0,0.0,-4.0,3.0,-6.0
1701619625.8017688,-2.0,-9.0,-42.0,-22.0,-10.0,-5.0,23.0,6.0
1701619625.8017688,39.0,25.0,24.0,19.0,-1.0,-5.0,-24.0,-3.0
1701619625.8017688,14.0,8.0,-14.0,2.0,16.0,5.0,3.0,-4.0
1701619625.8017688,-30.0,-3.0,25.0,-5.0,3.0,-1.0,0.0,-1.0
1701619625.8017688,6.0,23.0,-16.0,-4.0,-5.0,2.0,-2.0,-2.0
1701619625.8017688,13.0,-44.0,-19.0,-18.0,-7.0,-1.0,6.0,3.0
1701619625.8120763,-17.0,-6.0,60.0,49.0,-6.0,-3.0,14.0,0.0
1701619625.8120763,30.0,57.0,6.0,11.0,7.0,5.0,-18.0,0.0
1701619625.8321424,-27.0,-31.0,-22.0,-24.0,-1.0,7.0,13.0,-2.0
1701619625.8321424,-18.0,-24.0,-3.0,6.0,-4.0,-5.0,18.0,3.0
1701619625.8321424,26.0,23.0,-17.0,5.0,-1.0,-10.0,-29.0,-4.0
1701619625.8321424,24.0,43.0,31.0,6.0,6.0,6.0,18.0,7.0
1701619625.8617702,-41.0,-51.0,-6.0,-4.0,-4.0,-2.0,-16.0,-9.0
1701619625.8617702,29.0,51.0,10.0,8.0,2.0,4.0,7.0,1.0
1701619625.8617702,2.0,-20.0,-15.0,0.0,-4.0,-5.0,-7.0,-2.0
1701619625.8617702,-10.0,-10.0,5.0,-12.0,0.0,4.0,3.0,4.0
1701619625.8617702,9.0,37.0,-15.0,-11.0,-1.0,-10.0,-11.0,-8.0
1701619625.8617702,48.0,22.0,-20.0,-7.0,-4.0,-3.0,-4.0,0.0
1701619625.8720536,-72.0,-64.0,-11.0,-1.0,-4.0,-1.0,-1.0,-8.0
1701619625.8720536,19.0,-28.0,-21.0,-11.0,-2.0,1.0,2.0,1.0
1701619625.8921595,-32.0,-17.0,57.0,38.0,2.0,-7.0,-11.0,0.0
1701619625.8921595,-25.0,8.0,-14.0,-23.0,-5.0,3.0,-2.0,-3.0
1701619625.8921595,27.0,-15.0,45.0,43.0,12.0,9.0,9.0,4.0
1701619625.8921595,-11.0,-52.0,-69.0,-68.0,-8.0,-6.0,-3.0,-1.0
1701619625.9117684,15.0,1.0,52.0,0.0,-3.0,0.0,3.0,-1.0
1701619625.9117684,-12.0,-5.0,13.0,46.0,3.0,-5.0,-6.0,-3.0
1701619625.9117684,6.0,53.0,16.0,-27.0,-1.0,1.0,2.0,2.0
1701619625.9117684,-28.0,5.0,-1.0,29.0,-3.0,-2.0,-8.0,-8.0
1701619625.9221022,-6.0,-20.0,-3.0,-28.0,-6.0,-5.0,-2.0,-4.0
1701619625.9221022,15.0,7.0,-5.0,-26.0,0.0,5.0,1.0,5.0
1701619625.932067,8.0,-43.0,-36.0,-18.0,-18.0,-6.0,3.0,-3.0
1701619625.932067,13.0,26.0,-2.0,19.0,-1.0,-4.0,-2.0,-1.0
1701619625.961769,36.0,44.0,-41.0,-24.0,8.0,4.0,-1.0,1.0
1701619625.961769,-34.0,-26.0,35.0,30.0,2.0,-2.0,-6.0,-2.0
1701619625.961769,7.0,28.0,-17.0,13.0,1.0,0.0,11.0,1.0
1701619625.961769,3.0,5.0,-40.0,-44.0,-6.0,-2.0,-16.0,-2.0
1701619625.9718018,8.0,-9.0,-14.0,13.0,5.0,3.0,12.0,1.0
1701619625.9718018,-9.0,-20.0,-16.0,-30.0,1.0,-1.0,-1.0,2.0
1701619625.9718018,2.0,41.0,38.0,30.0,1.0,0.0,-2.0,-2.0
1701619625.9718018,-1.0,-61.0,43.0,39.0,-1.0,-5.0,0.0,-3.0
1701619625.982093,9.0,19.0,-37.0,-4.0,-2.0,0.0,11.0,3.0
1701619625.982093,-19.0,-12.0,-21.0,-17.0,2.0,-2.0,-11.0,-4.0
1701619625.992068,1.0,3.0,10.0,-29.0,2.0,0.0,-5.0,0.0
1701619625.992068,-13.0,-17.0,33.0,54.0,1.0,0.0,2.0,1.0
1701619626.0126562,-1.0,-19.0,0.0,-39.0,-1.0,2.0,-1.0,0.0
1701619626.0126562,20.0,31.0,14.0,27.0,0.0,0.0,4.0,0.0
1701619626.0144258,-5.0,-40.0,-50.0,21.0,-6.0,-3.0,2.0,-4.0
1701619626.0144258,12.0,4.0,10.0,-27.0,1.0,0.0,-6.0,-8.0
1701619626.0340254,-37.0,26.0,16.0,14.0,-1.0,2.0,5.0,5.0
1701619626.0340254,-2.0,-28.0,7.0,9.0,3.0,-3.0,-9.0,-8.0
1701619626.0340254,5.0,25.0,1.0,-25.0,-1.0,2.0,4.0,4.0
1701619626.0340254,-30.0,0.0,-8.0,-13.0,1.0,-4.0,-7.0,-5.0
1701619626.0542982,12.0,12.0,-42.0,-7.0,-7.0,-2.0,3.0,-6.0
1701619626.0542982,1.0,-37.0,20.0,23.0,-9.0,-4.0,0.0,3.0
1701619626.0542982,10.0,61.0,-3.0,3.0,5.0,1.0,-1.0,3.0
1701619626.0542982,-6.0,-3.0,-3.0,-5.0,-2.0,1.0,17.0,-2.0
1701619626.0740266,8.0,-60.0,24.0,10.0,-5.0,-7.0,-41.0,-4.0
1701619626.0740266,-13.0,17.0,7.0,-23.0,8.0,2.0,4.0,1.0
1701619626.0740266,-22.0,-53.0,33.0,34.0,-9.0,-7.0,-9.0,-2.0
1701619626.0740266,-47.0,-3.0,-48.0,-42.0,0.0,3.0,16.0,4.0
1701619626.094028,20.0,30.0,0.0,2.0,4.0,2.0,-3.0,1.0
1701619626.094028,-19.0,-56.0,-27.0,-4.0,-3.0,-2.0,-9.0,-12.0
1701619626.094028,8.0,-8.0,25.0,4.0,7.0,4.0,7.0,4.0
1701619626.094028,23.0,4.0,-18.0,-5.0,1.0,0.0,4.0,3.0
1701619626.1143565,-5.0,-13.0,-19.0,2.0,-7.0,-1.0,4.0,0.0
1701619626.1143565,41.0,19.0,-10.0,-13.0,0.0,0.0,-1.0,4.0
1701619626.1143565,-31.0,23.0,53.0,30.0,-1.0,-1.0,3.0,-5.0
1701619626.1143565,32.0,-22.0,-56.0,-39.0,-8.0,-6.0,-11.0,1.0
1701619626.1340263,-18.0,34.0,19.0,14.0,5.0,-1.0,-6.0,-4.0
1701619626.1340263,11.0,32.0,18.0,-17.0,3.0,4.0,10.0,3.0
1701619626.1340263,47.0,44.0,-25.0,-5.0,-8.0,-6.0,-6.0,4.0
1701619626.1340263,-54.0,-34.0,54.0,32.0,9.0,1.0,-1.0,-8.0
1701619626.1544342,-10.0,16.0,-26.0,11.0,-1.0,-1.0,-1.0,-1.0
1701619626.1544342,1.0,20.0,18.0,38.0,12.0,3.0,3.0,-5.0
1701619626.1544342,-17.0,-100.0,-104.0,-118.0,-11.0,-1.0,-2.0,-3.0
1701619626.1544342,2.0,69.0,43.0,30.0,-3.0,0.0,-3.0,3.0
1701619626.1744485,17.0,-21.0,16.0,-8.0,-8.0,-5.0,0.0,-2.0
1701619626.1744485,-2.0,8.0,10.0,8.0,-4.0,2.0,5.0,3.0
1701619626.1744485,6.0,49.0,-16.0,13.0,5.0,-2.0,-4.0,-4.0
1701619626.1744485,16.0,19.0,1.0,14.0,9.0,3.0,-2.0,1.0
1701619626.1840372,-40.0,-99.0,-68.0,-39.0,-4.0,-3.0,2.0,-6.0
1701619626.1840372,15.0,55.0,24.0,16.0,-10.0,-3.0,-4.0,0.0
1701619626.1940596,7.0,8.0,9.0,9.0,6.0,0.0,-1.0,-4.0
1701619626.1940596,36.0,22.0,-27.0,-19.0,-15.0,-4.0,-2.0,1.0
1701619626.214456,-27.0,11.0,31.0,-26.0,2.0,-1.0,1.0,0.0
1701619626.214456,19.0,-4.0,-12.0,-3.0,6.0,1.0,2.0,5.0
1701619626.214456,-29.0,39.0,-45.0,-3.0,-14.0,-3.0,-2.0,-4.0
1701619626.214456,-21.0,-20.0,76.0,26.0,8.0,-1.0,-4.0,-2.0
1701619626.2343917,-14.0,20.0,-37.0,14.0,2.0,0.0,-3.0,-6.0
1701619626.2343917,-22.0,-69.0,-7.0,-17.0,-9.0,-3.0,-3.0,-4.0
1701619626.2343917,1.0,26.0,19.0,25.0,4.0,2.0,1.0,-2.0
1701619626.2343917,9.0,-24.0,12.0,-28.0,-12.0,-4.0,-4.0,1.0
1701619626.244026,12.0,-3.0,-34.0,-12.0,4.0,1.0,2.0,2.0
1701619626.244026,5.0,37.0,32.0,-11.0,-5.0,-1.0,0.0,1.0
1701619626.2540536,-5.0,-32.0,-25.0,-16.0,-3.0,-1.0,-3.0,0.0
1701619626.2540536,8.0,23.0,5.0,39.0,0.0,-1.0,-3.0,-5.0
1701619626.2744565,22.0,-9.0,32.0,10.0,12.0,3.0,3.0,5.0
1701619626.2744565,12.0,-22.0,0.0,9.0,-1.0,0.0,-4.0,-2.0
1701619626.2744565,-14.0,-24.0,24.0,17.0,0.0,-1.0,-6.0,-5.0
1701619626.2744565,3.0,-28.0,-36.0,0.0,11.0,3.0,-3.0,0.0
1701619626.2944558,-7.0,-27.0,-3.0,-14.0,-13.0,-1.0,2.0,-5.0
1701619626.2944558,1.0,-1.0,21.0,1.0,2.0,-3.0,4.0,0.0
1701619626.2944558,72.0,-35.0,-81.0,-27.0,-4.0,1.0,-12.0,-1.0
1701619626.2944558,-17.0,39.0,45.0,12.0,-8.0,-4.0,-9.0,-8.0
1701619626.314021,13.0,15.0,35.0,2.0,-2.0,-1.0,2.0,-1.0
1701619626.314021,1.0,26.0,-14.0,-10.0,1.0,-4.0,-2.0,-1.0
1701619626.314021,-6.0,17.0,-7.0,0.0,-5.0,3.0,7.0,-1.0
1701619626.314021,10.0,-46.0,-47.0,-26.0,-2.0,-3.0,0.0,4.0
1701619626.3343513,-15.0,12.0,47.0,15.0,3.0,6.0,-3.0,2.0
1701619626.3343513,-26.0,-14.0,2.0,11.0,-5.0,-1.0,-3.0,-3.0
1701619626.3343513,11.0,-3.0,-35.0,-49.0,-5.0,-2.0,3.0,3.0
1701619626.3343513,-26.0,-13.0,-8.0,12.0,4.0,1.0,-5.0,-3.0
1701619626.3740249,1.0,33.0,26.0,22.0,-3.0,3.0,-3.0,2.0
1701619626.3740249,-12.0,7.0,-34.0,-10.0,2.0,-1.0,12.0,1.0
1701619626.3740249,14.0,74.0,115.0,65.0,15.0,-2.0,-17.0,-1.0
1701619626.3740249,-55.0,-60.0,-63.0,-71.0,-9.0,-2.0,-6.0,-8.0
1701619626.3740249,4.0,3.0,-32.0,0.0,-4.0,1.0,4.0,4.0
1701619626.3740249,3.0,-37.0,58.0,34.0,-3.0,-4.0,-5.0,-1.0
1701619626.3740249,16.0,1.0,-75.0,-39.0,-2.0,3.0,27.0,-1.0
1701619626.3740249,-10.0,17.0,16.0,-8.0,0.0,-9.0,-9.0,1.0
1701619626.394422,2.0,10.0,6.0,14.0,-6.0,-6.0,-5.0,-3.0
1701619626.394422,14.0,29.0,17.0,7.0,0.0,-3.0,-14.0,0.0
1701619626.394422,-3.0,49.0,79.0,17.0,4.0,6.0,9.0,3.0
1701619626.394422,42.0,25.0,-33.0,8.0,5.0,7.0,8.0,3.0
1701619626.4140222,-67.0,-34.0,-34.0,-21.0,-11.0,-5.0,5.0,-10.0
1701619626.4140222,-13.0,-8.0,-43.0,-19.0,-3.0,-1.0,-3.0,-1.0
1701619626.4243462,-28.0,-43.0,32.0,0.0,-1.0,-8.0,-21.0,0.0
1701619626.4243462,46.0,52.0,4.0,28.0,7.0,3.0,-5.0,4.0
1701619626.4243462,14.0,34.0,-39.0,0.0,-2.0,-5.0,6.0,-10.0
1701619626.4243462,-51.0,-39.0,4.0,-6.0,-6.0,-1.0,-5.0,-11.0
1701619626.4343364,-27.0,-16.0,-8.0,3.0,6.0,3.0,2.0,4.0
1701619626.4343364,-23.0,-22.0,-59.0,-50.0,-13.0,-5.0,9.0,-1.0
1701619626.4544203,43.0,21.0,81.0,25.0,4.0,-1.0,-22.0,-1.0
1701619626.4544203,30.0,-1.0,-57.0,-20.0,6.0,8.0,16.0,6.0
1701619626.4544203,-23.0,0.0,28.0,19.0,-3.0,-10.0,-18.0,-7.0
1701619626.4544203,20.0,-22.0,16.0,17.0,2.0,7.0,12.0,5.0
1701619626.4740226,-9.0,-19.0,-20.0,-34.0,-8.0,-1.0,-1.0,0.0
1701619626.4740226,7.0,13.0,20.0,42.0,3.0,-1.0,4.0,-2.0
1701619626.4740226,-25.0,5.0,2.0,-25.0,-4.0,-4.0,-10.0,1.0
1701619626.4740226,-7.0,-28.0,-24.0,-18.0,-2.0,1.0,4.0,-1.0
1701619626.4840562,-15.0,-13.0,8.0,24.0,-8.0,-9.0,5.0,-2.0
1701619626.4840562,23.0,52.0,54.0,18.0,19.0,8.0,-2.0,2.0
1701619626.4943552,-9.0,-72.0,-119.0,-56.0,-17.0,-5.0,14.0,-5.0
1701619626.4943552,-13.0,-42.0,50.0,27.0,12.0,0.0,-12.0,-3.0
1701619626.514438,23.0,6.0,18.0,-1.0,-6.0,-5.0,-12.0,3.0
1701619626.514438,7.0,66.0,-7.0,-5.0,4.0,0.0,6.0,-2.0
1701619626.514438,7.0,18.0,41.0,37.0,1.0,1.0,4.0,0.0
1701619626.514438,48.0,52.0,2.0,8.0,8.0,4.0,6.0,3.0
1701619626.5385025,-11.0,44.0,-1.0,-25.0,-11.0,0.0,13.0,3.0
1701619626.5385025,2.0,-58.0,-25.0,14.0,-8.0,-5.0,-22.0,-1.0
1701619626.5385025,12.0,15.0,33.0,5.0,1.0,-3.0,2.0,-7.0
1701619626.5385025,-1.0,-43.0,-78.0,-6.0,-1.0,3.0,5.0,1.0
1701619626.5503027,-2.0,-37.0,10.0,-1.0,3.0,-4.0,-11.0,-6.0
1701619626.5503027,-21.0,-29.0,-56.0,-22.0,-3.0,-4.0,3.0,-1.0
1701619626.5603235,9.0,-45.0,29.0,28.0,14.0,10.0,3.0,4.0
1701619626.5603235,-2.0,6.0,50.0,-5.0,-15.0,-5.0,-7.0,-5.0
1701619626.5802736,-4.0,-13.0,-71.0,8.0,6.0,1.0,-12.0,-6.0
1701619626.5802736,23.0,4.0,1.0,-47.0,-4.0,-4.0,7.0,6.0
1701619626.5802736,-43.0,-8.0,0.0,20.0,-2.0,2.0,-3.0,-5.0
1701619626.5802736,-2.0,-1.0,50.0,10.0,1.0,-5.0,-24.0,-7.0
1701619626.5906532,26.0,52.0,15.0,13.0,9.0,-1.0,6.0,6.0
1701619626.5906532,-16.0,-56.0,14.0,28.0,-4.0,-5.0,-11.0,-12.0
1701619626.5906532,32.0,80.0,-42.0,-27.0,0.0,-2.0,3.0,7.0
1701619626.5906532,-27.0,-63.0,-5.0,-31.0,-14.0,0.0,22.0,-4.0
1701619626.6109862,13.0,29.0,13.0,24.0,12.0,5.0,3.0,5.0
1701619626.6109862,-27.0,-18.0,27.0,-4.0,-6.0,1.0,-13.0,-13.0
1701619626.620729,17.0,19.0,19.0,1.0,1.0,1.0,-5.0,3.0
1701619626.620729,-10.0,-27.0,-50.0,-11.0,-1.0,-1.0,22.0,2.0
1701619626.640665,-17.0,2.0,11.0,7.0,-1.0,-5.0,-23.0,-11.0
1701619626.640665,1.0,-44.0,-68.0,-31.0,-3.0,0.0,5.0,5.0
1701619626.640665,-16.0,-2.0,9.0,1.0,-6.0,-3.0,6.0,3.0
1701619626.640665,19.0,81.0,67.0,38.0,6.0,1.0,-4.0,4.0
1701619626.65088,7.0,-31.0,1.0,2.0,-2.0,-3.0,-10.0,3.0
1701619626.65088,-1.0,16.0,-15.0,-23.0,-9.0,-1.0,4.0,-13.0
1701619626.65088,10.0,12.0,86.0,45.0,4.0,-7.0,-27.0,-9.0
1701619626.65088,-9.0,18.0,-77.0,-24.0,-5.0,-5.0,3.0,-1.0
1701619626.670951,-25.0,-64.0,-51.0,-35.0,-1.0,4.0,15.0,1.0
1701619626.670951,-2.0,8.0,41.0,29.0,-2.0,1.0,-11.0,4.0
1701619626.6807244,2.0,23.0,-44.0,-46.0,-16.0,-10.0,-21.0,-10.0
1701619626.6807244,-1.0,-16.0,25.0,27.0,5.0,2.0,1.0,7.0
1701619626.7107456,1.0,6.0,39.0,30.0,15.0,1.0,-18.0,-19.0
1701619626.7107456,5.0,12.0,-28.0,-27.0,-8.0,-3.0,6.0,5.0
1701619626.7107456,3.0,-60.0,-56.0,-25.0,-5.0,0.0,17.0,-1.0
1701619626.7107456,12.0,36.0,66.0,32.0,8.0,5.0,-9.0,1.0
1701619626.72074,-25.0,-23.0,-57.0,-10.0,-10.0,-3.0,5.0,1.0
1701619626.72074,2.0,33.0,45.0,3.0,3.0,-6.0,-18.0,-4.0
1701619626.72074,13.0,-30.0,9.0,-14.0,-6.0,4.0,46.0,5.0
1701619626.72074,18.0,8.0,13.0,-5.0,2.0,-5.0,-37.0,-5.0
1701619626.7310839,-30.0,-13.0,38.0,28.0,-1.0,-5.0,2.0,-4.0
1701619626.7310839,22.0,50.0,-36.0,-1.0,9.0,8.0,9.0,6.0
1701619626.7408023,9.0,-20.0,-35.0,-39.0,-8.0,-5.0,-9.0,-3.0
1701619626.7408023,-36.0,-34.0,18.0,5.0,-2.0,-5.0,3.0,-5.0
1701619626.7507412,40.0,15.0,74.0,37.0,3.0,6.0,14.0,4.0
1701619626.7507412,-17.0,29.0,-42.0,-2.0,-7.0,-5.0,-8.0,-5.0
1701619626.7507412,-9.0,-20.0,-35.0,-15.0,-4.0,1.0,-13.0,-3.0
1701619626.7507412,20.0,45.0,5.0,-6.0,6.0,4.0,14.0,6.0
1701619626.7711117,-22.0,-37.0,52.0,8.0,-2.0,-2.0,-15.0,-2.0
1701619626.7711117,16.0,10.0,1.0,-7.0,-3.0,-3.0,15.0,2.0
1701619626.7810943,-26.0,-47.0,-54.0,12.0,6.0,-1.0,0.0,-1.0
1701619626.7810943,14.0,60.0,-1.0,-37.0,-15.0,-6.0,-4.0,-2.0
1701619626.7915072,-18.0,-50.0,-62.0,-17.0,-2.0,-1.0,5.0,-2.0
1701619626.7915072,3.0,30.0,28.0,5.0,4.0,4.0,-2.0,4.0
1701619626.801109,-38.0,-34.0,15.0,25.0,0.0,-7.0,-6.0,-11.0
1701619626.801109,-9.0,-36.0,-6.0,2.0,5.0,0.0,1.0,-7.0
1701619626.811139,17.0,39.0,9.0,7.0,2.0,3.0,4.0,2.0
1701619626.811139,-2.0,19.0,-1.0,-5.0,0.0,2.0,4.0,0.0
1701619626.811139,19.0,61.0,93.0,21.0,4.0,0.0,-1.0,5.0
1701619626.811139,-12.0,-34.0,-104.0,-13.0,0.0,-3.0,-11.0,-5.0
1701619626.831429,-1.0,16.0,20.0,-20.0,-2.0,1.0,1.0,-1.0
1701619626.831429,-6.0,-37.0,19.0,-12.0,-9.0,-7.0,-8.0,-4.0
1701619626.831429,8.0,34.0,54.0,27.0,3.0,2.0,-3.0,1.0
1701619626.831429,1.0,13.0,-11.0,-8.0,-10.0,-5.0,2.0,-3.0
1701619626.8511093,57.0,2.0,-9.0,-1.0,0.0,4.0,24.0,7.0
1701619626.8511093,-84.0,-77.0,17.0,22.0,4.0,1.0,1.0,-4.0
1701619626.8711104,-13.0,45.0,-13.0,-15.0,4.0,-5.0,-22.0,-7.0
1701619626.8711104,25.0,38.0,39.0,15.0,-1.0,3.0,25.0,5.0
1701619626.8811035,-36.0,-20.0,-25.0,-25.0,-6.0,-7.0,-18.0,-14.0
1701619626.8811035,10.0,2.0,1.0,-8.0,-4.0,2.0,28.0,13.0
1701619626.8811035,0.0,-14.0,-28.0,-11.0,-2.0,3.0,-5.0,1.0
1701619626.8811035,-5.0,-16.0,9.0,12.0,-3.0,-2.0,-10.0,1.0
1701619626.8913581,17.0,18.0,-13.0,-9.0,-4.0,-1.0,16.0,6.0
1701619626.8913581,12.0,-38.0,33.0,5.0,0.0,-3.0,-19.0,-10.0
1701619626.8913581,-5.0,-6.0,-47.0,0.0,3.0,1.0,3.0,3.0
1701619626.8913581,36.0,33.0,10.0,3.0,0.0,3.0,8.0,2.0
1701619626.9114263,-50.0,-85.0,-21.0,-24.0,-7.0,-5.0,-4.0,-11.0
1701619626.9114263,-22.0,50.0,23.0,25.0,4.0,-7.0,-27.0,-3.0
1701619626.931168,41.0,0.0,-45.0,-49.0,-4.0,3.0,14.0,4.0
1701619626.931168,-18.0,32.0,34.0,10.0,-2.0,-3.0,-7.0,-10.0
1701619626.9411857,-36.0,18.0,13.0,16.0,9.0,5.0,-1.0,2.0
1701619626.9411857,28.0,4.0,21.0,20.0,3.0,6.0,13.0,14.0
1701619626.9411857,-5.0,-12.0,4.0,24.0,0.0,1.0,1.0,-4.0
1701619626.9411857,-26.0,-27.0,-43.0,-36.0,-4.0,-7.0,-10.0,-6.0
1701619626.9514556,21.0,50.0,23.0,13.0,3.0,1.0,-2.0,4.0
1701619626.9514556,16.0,-17.0,-26.0,-12.0,-7.0,-7.0,-22.0,-11.0
1701619626.9514556,-8.0,11.0,43.0,16.0,6.0,5.0,-8.0,0.0
1701619626.9514556,-5.0,-14.0,3.0,-11.0,-3.0,4.0,29.0,6.0
1701619626.9712055,18.0,2.0,-10.0,-2.0,1.0,-2.0,-9.0,-4.0
1701619626.981187,-15.0,25.0,47.0,9.0,6.0,1.0,-7.0,2.0
1701619626.981187,2.0,7.0,-70.0,-17.0,-13.0,-7.0,-1.0,-4.0
1701619626.981187,-7.0,20.0,2.0,11.0,2.0,-4.0,-11.0,-2.0
1701619626.9916058,27.0,23.0,-9.0,-14.0,-5.0,-2.0,6.0,5.0
1701619626.9916058,3.0,-10.0,-62.0,-31.0,-7.0,-2.0,11.0,-10.0
1701619626.9916058,25.0,27.0,56.0,15.0,2.0,-1.0,-5.0,3.0
1701619626.9916058,-16.0,-65.0,9.0,3.0,-5.0,-5.0,-7.0,-4.0
1701619627.011612,-17.0,22.0,21.0,-3.0,-6.0,-6.0,-9.0,-2.0
1701619627.011612,28.0,7.0,16.0,9.0,-1.0,2.0,5.0,2.0
1701619627.0213432,1.0,-57.0,-15.0,0.0,-1.0,-2.0,4.0,-3.0
1701619627.0213432,-51.0,37.0,12.0,-8.0,1.0,-2.0,-9.0,-9.0
1701619627.0311866,-5.0,-2.0,-2.0,6.0,-1.0,-1.0,2.0,1.0
1701619627.0311866,34.0,-3.0,-10.0,-5.0,2.0,0.0,5.0,2.0
1701619627.0412166,-17.0,8.0,16.0,7.0,-10.0,-6.0,-1.0,-2.0
1701619627.0412166,9.0,28.0,-32.0,-11.0,0.0,4.0,3.0,0.0
1701619627.0514758,-19.0,-26.0,-3.0,16.0,17.0,3.0,-1.0,-1.0
1701619627.0514758,5.0,5.0,22.0,5.0,6.0,-3.0,4.0,1.0
1701619627.0514758,-10.0,-51.0,-70.0,-26.0,-2.0,0.0,3.0,0.0
1701619627.0514758,21.0,8.0,27.0,21.0,-10.0,-8.0,-12.0,-3.0
1701619627.0777452,14.0,40.0,-3.0,-15.0,2.0,6.0,0.0,2.0
1701619627.0787911,-23.0,2.0,-5.0,-11.0,10.0,4.0,1.0,-2.0
1701619627.0797482,-15.0,-13.0,74.0,31.0,-10.0,-5.0,0.0,0.0
1701619627.0797482,3.0,-2.0,-44.0,-11.0,13.0,2.0,-5.0,0.0
1701619627.103187,10.0,-5.0,-8.0,-21.0,-17.0,-5.0,-2.0,1.0
1701619627.103187,24.0,36.0,21.0,14.0,-4.0,-2.0,2.0,1.0
1701619627.103187,-41.0,-74.0,-41.0,-22.0,-3.0,-7.0,-6.0,-8.0
1701619627.103187,17.0,8.0,13.0,-16.0,-21.0,-6.0,-1.0,2.0
1701619627.113656,9.0,-14.0,-5.0,43.0,15.0,5.0,5.0,2.0
1701619627.113656,16.0,-29.0,-44.0,-40.0,-5.0,-6.0,-6.0,-5.0
1701619627.113656,-9.0,19.0,11.0,5.0,2.0,6.0,2.0,0.0
1701619627.113656,-3.0,-6.0,19.0,13.0,-3.0,0.0,-4.0,-1.0
1701619627.1340559,1.0,-10.0,-30.0,-20.0,-7.0,-6.0,-3.0,-1.0
1701619627.1340559,5.0,-33.0,35.0,-7.0,-15.0,-3.0,5.0,3.0
1701619627.1340559,13.0,41.0,23.0,24.0,-1.0,-7.0,-6.0,-3.0
1701619627.1340559,-12.0,-57.0,-45.0,-19.0,11.0,8.0,2.0,0.0
1701619627.1537027,12.0,-11.0,20.0,-4.0,-7.0,-2.0,-5.0,-3.0
1701619627.1537027,-15.0,29.0,-9.0,11.0,1.0,-1.0,-3.0,-2.0
1701619627.1537027,14.0,22.0,33.0,11.0,9.0,1.0,0.0,3.0
1701619627.1537027,15.0,-24.0,-18.0,-20.0,-13.0,-6.0,-4.0,-2.0
1701619627.1740088,-37.0,39.0,-3.0,-13.0,-9.0,-9.0,-7.0,-5.0
1701619627.1740088,-1.0,12.0,-8.0,-7.0,6.0,0.0,2.0,0.0
1701619627.1740088,-36.0,-78.0,-64.0,-8.0,-3.0,0.0,-6.0,-5.0
1701619627.1740088,16.0,26.0,38.0,32.0,16.0,4.0,-1.0,3.0
1701619627.1940558,13.0,-26.0,0.0,-9.0,-5.0,1.0,3.0,2.0
1701619627.1940558,-19.0,9.0,-4.0,-1.0,-2.0,-4.0,-6.0,-3.0
1701619627.1940558,32.0,72.0,-26.0,-11.0,2.0,10.0,9.0,7.0
1701619627.1940558,-3.0,-81.0,-31.0,-11.0,-5.0,-3.0,-4.0,-5.0
1701619627.2136667,29.0,-17.0,16.0,1.0,-3.0,-3.0,-3.0,0.0
1701619627.2136667,-35.0,31.0,-4.0,14.0,-9.0,-4.0,-3.0,-3.0
1701619627.2136667,16.0,-32.0,-31.0,-29.0,8.0,1.0,2.0,3.0
1701619627.2136667,2.0,46.0,2.0,16.0,8.0,0.0,-1.0,-2.0
1701619627.2340631,15.0,-49.0,-5.0,2.0,2.0,0.0,-2.0,0.0
1701619627.2340631,41.0,36.0,-25.0,-15.0,-9.0,-2.0,-2.0,1.0
1701619627.2340631,-23.0,-25.0,48.0,1.0,-6.0,-8.0,-5.0,-7.0
1701619627.2340631,-10.0,-8.0,-22.0,14.0,7.0,0.0,1.0,-1.0
1701619627.263981,-4.0,26.0,10.0,-7.0,3.0,1.0,1.0,1.0
1701619627.263981,-28.0,-31.0,-40.0,-11.0,-10.0,-4.0,-8.0,-9.0
1701619627.263981,14.0,24.0,29.0,10.0,-2.0,-5.0,-1.0,1.0
1701619627.263981,-12.0,9.0,7.0,8.0,2.0,2.0,0.0,0.0
1701619627.2740188,7.0,44.0,-12.0,5.0,8.0,3.0,-1.0,2.0
1701619627.2740188,34.0,-11.0,11.0,-2.0,1.0,0.0,0.0,-1.0
1701619627.2740188,-12.0,29.0,23.0,14.0,0.0,0.0,-2.0,-2.0
1701619627.2740188,-10.0,-59.0,-10.0,-10.0,-16.0,-7.0,-6.0,-6.0
1701619627.2940671,-15.0,-37.0,-72.0,-34.0,-6.0,1.0,-1.0,-2.0
1701619627.2940671,-9.0,-36.0,19.0,29.0,10.0,4.0,1.0,1.0
1701619627.303668,-7.0,4.0,-4.0,-17.0,3.0,2.0,0.0,-4.0
1701619627.303668,4.0,73.0,54.0,10.0,8.0,0.0,3.0,4.0
1701619627.3136666,-9.0,-34.0,15.0,-4.0,-11.0,-6.0,-6.0,-4.0
1701619627.3136666,-15.0,-38.0,-29.0,-4.0,-4.0,-2.0,0.0,0.0
1701619627.3136666,9.0,20.0,16.0,13.0,-8.0,-7.0,-5.0,-1.0
1701619627.3136666,-1.0,24.0,7.0,7.0,6.0,5.0,11.0,6.0
1701619627.3439932,-7.0,6.0,-33.0,-27.0,-8.0,-7.0,-13.0,-9.0
1701619627.3439932,-21.0,-13.0,-10.0,-14.0,-4.0,-4.0,-5.0,-11.0
1701619627.3439932,9.0,-1.0,27.0,11.0,3.0,4.0,15.0,7.0
1701619627.3439932,-2.0,-10.0,5.0,-4.0,-4.0,0.0,-2.0,-3.0
1701619627.3539548,-7.0,-8.0,9.0,15.0,5.0,3.0,3.0,1.0
1701619627.3539548,4.0,31.0,-12.0,-3.0,-3.0,-11.0,-14.0,-6.0
1701619627.3539548,3.0,-3.0,-37.0,-30.0,-8.0,-1.0,-8.0,-10.0
1701619627.3539548,-14.0,-6.0,30.0,3.0,0.0,-1.0,-7.0,2.0
1701619627.3736665,-5.0,-19.0,-22.0,-16.0,-7.0,-3.0,6.0,19.0
1701619627.3736665,1.0,-3.0,0.0,17.0,3.0,3.0,18.0,10.0
1701619627.3736665,3.0,8.0,21.0,-3.0,3.0,1.0,2.0,1.0
1701619627.3736665,2.0,-28.0,40.0,18.0,2.0,-3.0,-3.0,-12.0
1701619627.3939338,7.0,26.0,-56.0,-35.0,-16.0,-8.0,-14.0,-9.0
1701619627.3939338,1.0,-3.0,-41.0,-32.0,-2.0,-1.0,-3.0,-5.0
1701619627.3939338,1.0,-9.0,13.0,18.0,2.0,-2.0,2.0,8.0
1701619627.3939338,-14.0,-2.0,-10.0,-13.0,-5.0,-1.0,-11.0,-8.0
1701619627.4138677,-4.0,-6.0,39.0,26.0,6.0,4.0,5.0,-2.0
1701619627.4138677,6.0,-5.0,23.0,19.0,3.0,3.0,-3.0,7.0
1701619627.423672,-11.0,3.0,-32.0,-11.0,1.0,-3.0,-6.0,-10.0
1701619627.423672,2.0,26.0,-8.0,-15.0,-15.0,-7.0,-2.0,2.0
1701619627.4436672,2.0,1.0,43.0,33.0,8.0,-1.0,8.0,-2.0
1701619627.4436672,-12.0,1.0,-15.0,-26.0,-10.0,6.0,-1.0,3.0
1701619627.4436672,6.0,10.0,27.0,32.0,12.0,1.0,-2.0,1.0
1701619627.4436672,-18.0,-10.0,-26.0,-25.0,-4.0,-2.0,1.0,-4.0
1701619627.4536996,7.0,-17.0,25.0,10.0,4.0,-1.0,-2.0,-1.0
1701619627.4536996,3.0,-12.0,21.0,35.0,12.0,2.0,2.0,0.0
1701619627.4536996,-3.0,-12.0,-50.0,-34.0,4.0,-1.0,0.0,0.0
1701619627.4536996,7.0,-11.0,-31.0,-9.0,-11.0,-7.0,-2.0,1.0
1701619627.4736679,-9.0,28.0,20.0,4.0,-1.0,0.0,0.0,-4.0
1701619627.4736679,-8.0,-34.0,2.0,-2.0,0.0,2.0,2.0,-2.0
1701619627.4736679,1.0,12.0,9.0,7.0,-1.0,-2.0,-3.0,-1.0
1701619627.4736679,2.0,-11.0,-14.0,-13.0,4.0,1.0,3.0,-1.0
1701619627.4939005,4.0,18.0,9.0,3.0,3.0,5.0,7.0,2.0
1701619627.4939005,-2.0,10.0,12.0,-5.0,-7.0,-6.0,-5.0,-3.0
1701619627.4939005,-4.0,-1.0,8.0,6.0,-3.0,3.0,-4.0,2.0
1701619627.4939005,10.0,3.0,-21.0,0.0,4.0,1.0,-4.0,2.0
1701619627.513906,8.0,-2.0,34.0,12.0,8.0,5.0,0.0,2.0
1701619627.513906,-17.0,-23.0,-47.0,-6.0,-3.0,-4.0,0.0,-2.0
1701619627.513906,-12.0,-8.0,-20.0,-2.0,-2.0,0.0,3.0,-2.0
1701619627.513906,20.0,37.0,40.0,16.0,-4.0,-9.0,-10.0,-1.0
1701619627.5338767,-19.0,-38.0,-24.0,-20.0,-6.0,-2.0,-4.0,-3.0
1701619627.5338767,-2.0,1.0,25.0,11.0,4.0,1.0,-1.0,-1.0
1701619627.5436723,3.0,1.0,27.0,0.0,-3.0,0.0,0.0,12.0
1701619627.5436723,4.0,-15.0,-21.0,-4.0,3.0,2.0,1.0,-13.0
1701619627.5539353,7.0,27.0,-13.0,-3.0,-7.0,-4.0,-2.0,-1.0
1701619627.5539353,7.0,7.0,8.0,-22.0,-4.0,-2.0,-4.0,-3.0
1701619627.573669,-3.0,-22.0,-21.0,-22.0,-20.0,-7.0,-5.0,-7.0
1701619627.573669,-5.0,9.0,52.0,32.0,11.0,8.0,2.0,4.0
1701619627.5836654,1.0,2.0,-14.0,2.0,7.0,4.0,-1.0,-4.0
1701619627.5836654,-2.0,-1.0,-23.0,-14.0,7.0,3.0,6.0,1.0
1701619627.5836654,6.0,9.0,29.0,29.0,23.0,8.0,4.0,2.0
1701619627.5836654,-2.0,-4.0,-29.0,-20.0,-8.0,-6.0,-2.0,4.0
1701619627.6013575,-1.0,7.0,5.0,8.0,-9.0,-7.0,-8.0,-8.0
1701619627.6013575,-14.0,-16.0,30.0,4.0,-4.0,-3.0,-4.0,-3.0
1701619627.6023588,14.0,20.0,8.0,2.0,-8.0,-4.0,-2.0,-3.0
1701619627.6023588,21.0,-6.0,-19.0,-14.0,-2.0,-1.0,2.0,1.0
1701619627.6257677,3.0,9.0,11.0,5.0,-2.0,-4.0,-1.0,-2.0
1701619627.6257677,-6.0,2.0,12.0,0.0,-10.0,0.0,1.0,2.0
1701619627.6257677,-6.0,31.0,-18.0,-9.0,-4.0,-3.0,-5.0,-6.0
1701619627.6257677,10.0,-36.0,2.0,-4.0,5.0,-1.0,0.0,2.0
1701619627.6557672,4.0,21.0,13.0,2.0,-10.0,-5.0,-3.0,5.0
1701619627.6557672,1.0,34.0,16.0,15.0,4.0,1.0,3.0,-3.0
1701619627.6557672,7.0,-47.0,-23.0,-10.0,3.0,1.0,-5.0,-3.0
1701619627.6557672,-20.0,1.0,-18.0,-6.0,1.0,7.0,6.0,0.0
1701619627.6557672,-46.0,-90.0,-13.0,-24.0,1.0,3.0,1.0,-3.0
1701619627.6557672,18.0,48.0,28.0,18.0,6.0,0.0,-4.0,-3.0
1701619627.6660676,-71.0,-11.0,-61.0,-11.0,-11.0,-8.0,-7.0,-9.0
1701619627.6660676,20.0,25.0,57.0,7.0,8.0,-1.0,6.0,6.0
1701619627.6760943,44.0,-58.0,-42.0,7.0,4.0,0.0,0.0,1.0
1701619627.6760943,-61.0,15.0,23.0,-24.0,-12.0,-6.0,-6.0,-8.0
1701619627.6760943,17.0,32.0,6.0,5.0,1.0,0.0,0.0,1.0
1701619627.6760943,18.0,-10.0,-3.0,10.0,-7.0,-6.0,-4.0,3.0
1701619627.705764,24.0,85.0,27.0,17.0,-3.0,-4.0,-4.0,-6.0
1701619627.705764,18.0,-63.0,-40.0,-9.0,8.0,2.0,-1.0,2.0
1701619627.705764,1.0,84.0,34.0,2.0,7.0,2.0,6.0,0.0
1701619627.705764,-16.0,-53.0,-19.0,1.0,-4.0,2.0,-2.0,-3.0
1701619627.705764,27.0,65.0,21.0,14.0,4.0,-5.0,-1.0,6.0
1701619627.705764,3.0,9.0,-24.0,-4.0,-2.0,2.0,2.0,-3.0
1701619627.7159262,-29.0,-34.0,-13.0,-13.0,-7.0,0.0,-8.0,-8.0
1701619627.7159262,18.0,47.0,31.0,5.0,2.0,-1.0,-1.0,0.0
1701619627.736,-28.0,-57.0,-9.0,-5.0,1.0,2.0,3.0,-2.0
1701619627.736,21.0,34.0,-4.0,8.0,-3.0,-5.0,-12.0,0.0
1701619627.736,31.0,8.0,-17.0,7.0,-3.0,-4.0,-1.0,3.0
1701619627.736,-26.0,-17.0,-22.0,-18.0,-5.0,0.0,7.0,-2.0
1701619627.7757647,-27.0,-20.0,-1.0,-18.0,-8.0,-6.0,-31.0,-36.0
1701619627.7757647,12.0,-6.0,10.0,11.0,8.0,3.0,19.0,43.0
1701619627.7757647,-13.0,-31.0,5.0,-9.0,-9.0,-2.0,-12.0,-16.0
1701619627.7757647,0.0,3.0,-25.0,-3.0,-2.0,1.0,18.0,7.0
1701619627.7757647,23.0,20.0,-5.0,8.0,5.0,5.0,40.0,9.0
1701619627.7757647,21.0,-7.0,-34.0,-17.0,-6.0,3.0,49.0,23.0
1701619627.7757647,-33.0,-42.0,22.0,8.0,-5.0,-8.0,-17.0,12.0
1701619627.7757647,-23.0,-32.0,-20.0,-7.0,-3.0,-7.0,-29.0,-8.0
1701619627.7960324,-16.0,0.0,9.0,8.0,5.0,4.0,-22.0,-11.0
1701619627.7960324,-4.0,-42.0,6.0,4.0,0.0,-3.0,-24.0,-14.0
1701619627.7960324,28.0,4.0,29.0,-5.0,1.0,-1.0,1.0,0.0
1701619627.7960324,-15.0,-13.0,-35.0,11.0,1.0,0.0,-9.0,-8.0
1701619627.8257627,10.0,3.0,33.0,-8.0,-12.0,-2.0,-1.0,4.0
1701619627.8257627,-10.0,-23.0,-58.0,-14.0,-3.0,-3.0,-7.0,-11.0
1701619627.8257627,3.0,13.0,1.0,-12.0,-12.0,-1.0,5.0,0.0
1701619627.8257627,30.0,15.0,-45.0,-31.0,14.0,11.0,9.0,1.0
1701619627.8257627,-21.0,31.0,65.0,49.0,-3.0,-6.0,4.0,-2.0
1701619627.8257627,-21.0,-29.0,-3.0,5.0,6.0,1.0,-7.0,-3.0
1701619627.835952,21.0,10.0,12.0,-16.0,-8.0,-2.0,3.0,-2.0
1701619627.835952,-23.0,4.0,-19.0,-6.0,-7.0,-5.0,-3.0,-7.0
1701619627.856049,17.0,6.0,-43.0,-31.0,-5.0,2.0,6.0,21.0
1701619627.856049,15.0,-8.0,21.0,2.0,-8.0,-6.0,-11.0,-10.0
1701619627.856049,-25.0,12.0,29.0,21.0,5.0,2.0,2.0,-1.0
1701619627.856049,-32.0,-56.0,-15.0,17.0,6.0,-1.0,0.0,0.0
1701619627.885806,-15.0,28.0,-44.0,-26.0,-9.0,-8.0,-6.0,-3.0
1701619627.885806,-4.0,17.0,25.0,10.0,-2.0,0.0,1.0,-6.0
1701619627.885806,25.0,-10.0,-45.0,-14.0,8.0,6.0,9.0,-2.0
1701619627.885806,1.0,-25.0,2.0,-18.0,-15.0,-3.0,0.0,5.0
1701619627.885806,-21.0,-24.0,16.0,9.0,11.0,-2.0,-8.0,-5.0
1701619627.885806,17.0,12.0,-31.0,-11.0,6.0,3.0,-4.0,-8.0
1701619627.8960462,-1.0,18.0,33.0,13.0,4.0,3.0,4.0,5.0
1701619627.8960462,0.0,29.0,75.0,38.0,1.0,-2.0,-2.0,1.0
1701619627.9162169,13.0,9.0,-112.0,-41.0,1.0,5.0,4.0,3.0
1701619627.9162169,-12.0,-49.0,-48.0,-25.0,-16.0,-7.0,-8.0,-6.0
1701619627.9162169,-3.0,-18.0,-30.0,-5.0,2.0,2.0,1.0,-2.0
1701619627.9162169,7.0,-25.0,38.0,15.0,-5.0,-7.0,-6.0,-3.0
1701619627.9562333,-7.0,-26.0,26.0,4.0,7.0,3.0,3.0,-1.0
1701619627.9562333,-8.0,36.0,62.0,6.0,-5.0,-4.0,-6.0,-2.0
1701619627.9562333,-5.0,-26.0,-56.0,0.0,-2.0,-3.0,-2.0,-4.0
1701619627.9562333,27.0,30.0,-5.0,-12.0,-4.0,1.0,0.0,-2.0
1701619627.9562333,10.0,67.0,0.0,32.0,7.0,0.0,-1.0,3.0
1701619627.9562333,-9.0,-32.0,-32.0,-37.0,-8.0,-1.0,1.0,-3.0
1701619627.9562333,5.0,-25.0,62.0,21.0,1.0,-2.0,-1.0,-1.0
1701619627.9562333,12.0,28.0,-19.0,-5.0,3.0,2.0,-1.0,-1.0
1701619627.9765506,-56.0,-37.0,2.0,-16.0,-13.0,-4.0,-6.0,-6.0
1701619627.9765506,4.0,16.0,23.0,0.0,7.0,6.0,3.0,-1.0
1701619627.9765506,3.0,1.0,0.0,9.0,3.0,-1.0,-2.0,-1.0
1701619627.9765506,-41.0,4.0,14.0,11.0,4.0,-1.0,0.0,-3.0
1701619627.9962666,21.0,4.0,2.0,-17.0,-2.0,-2.0,-3.0,3.0
1701619627.9962666,-19.0,-15.0,-12.0,32.0,2.0,1.0,-1.0,-3.0
1701619627.9962666,38.0,-11.0,-60.0,-41.0,-15.0,-8.0,-1.0,2.0
1701619627.9962666,6.0,64.0,-6.0,8.0,6.0,3.0,-1.0,-2.0
1701619628.0165398,-6.0,9.0,6.0,-8.0,-1.0,-2.0,1.0,-2.0
1701619628.0165398,3.0,27.0,14.0,13.0,-6.0,-6.0,-5.0,-4.0
1701619628.0165398,5.0,-5.0,16.0,26.0,18.0,6.0,4.0,1.0
1701619628.0165398,-14.0,-5.0,-10.0,-45.0,-16.0,-10.0,-7.0,-2.0
1701619628.0462337,68.0,-13.0,-47.0,7.0,3.0,4.0,5.0,3.0
1701619628.0462337,-29.0,2.0,13.0,-1.0,1.0,2.0,1.0,-3.0
1701619628.0462337,49.0,5.0,26.0,10.0,-4.0,-2.0,-2.0,3.0
1701619628.0462337,-46.0,21.0,-20.0,-18.0,-8.0,-5.0,-6.0,-10.0
1701619628.0566018,-28.0,-49.0,29.0,-14.0,-17.0,-9.0,-5.0,-4.0
1701619628.0566018,34.0,28.0,27.0,16.0,10.0,3.0,-1.0,6.0
1701619628.0566018,23.0,12.0,20.0,20.0,14.0,6.0,4.0,0.0
1701619628.0566018,-5.0,-48.0,34.0,13.0,3.0,0.0,-2.0,-5.0
1701619628.0766685,-4.0,16.0,6.0,-12.0,-2.0,-2.0,-3.0,-4.0
1701619628.0766685,-11.0,-31.0,-30.0,-4.0,-3.0,-5.0,-4.0,-4.0
1701619628.0766685,-5.0,12.0,62.0,15.0,-4.0,-3.0,-4.0,-1.0
1701619628.0766685,0.0,48.0,-75.0,-18.0,-9.0,-5.0,0.0,-1.0
1701619628.0962324,19.0,19.0,-1.0,24.0,5.0,2.0,1.0,6.0
1701619628.0962324,-12.0,-17.0,-17.0,-13.0,-2.0,-3.0,-2.0,-2.0
1701619628.0962324,-12.0,-22.0,25.0,-5.0,-4.0,-2.0,-2.0,-3.0
1701619628.0962324,44.0,20.0,39.0,21.0,8.0,4.0,3.0,4.0
1701619628.1203153,-45.0,-24.0,-28.0,-2.0,0.0,0.0,-3.0,-5.0
1701619628.12138,30.0,13.0,15.0,-5.0,1.0,4.0,2.0,3.0
1701619628.122393,-37.0,-44.0,-10.0,-29.0,-8.0,-4.0,-6.0,-9.0
1701619628.122393,11.0,-20.0,-48.0,0.0,-9.0,-4.0,-1.0,1.0
1701619628.1428173,-24.0,-12.0,9.0,4.0,9.0,2.0,2.0,-4.0
1701619628.1438615,-17.0,-2.0,64.0,13.0,-5.0,-4.0,0.0,0.0
1701619628.144814,-8.0,24.0,-44.0,5.0,5.0,-3.0,-3.0,-1.0
1701619628.144814,-3.0,-14.0,59.0,9.0,4.0,3.0,6.0,3.0
1701619628.1686573,22.0,-9.0,26.0,28.0,7.0,3.0,-3.0,1.0
1701619628.1686573,-12.0,-5.0,-66.0,-38.0,-10.0,-5.0,-4.0,1.0
1701619628.1686573,-9.0,14.0,-13.0,-7.0,-2.0,2.0,6.0,-2.0
1701619628.1686573,-5.0,-41.0,0.0,2.0,-1.0,0.0,11.0,-5.0
1701619628.1788356,11.0,4.0,5.0,-6.0,-2.0,0.0,12.0,6.0
1701619628.1788356,2.0,-20.0,37.0,18.0,9.0,1.0,-21.0,-4.0
1701619628.1788356,-13.0,13.0,-17.0,-4.0,6.0,3.0,2.0,4.0
1701619628.1788356,10.0,5.0,34.0,13.0,2.0,2.0,4.0,2.0
1701619628.1990187,-9.0,-14.0,-57.0,-20.0,-8.0,-3.0,11.0,-3.0
1701619628.1990187,4.0,8.0,14.0,19.0,2.0,-2.0,-9.0,-4.0
1701619628.1990187,-13.0,-33.0,-7.0,-8.0,-7.0,-4.0,-1.0,1.0
1701619628.1990187,5.0,24.0,17.0,4.0,2.0,-1.0,-10.0,-2.0
1701619628.2290359,-23.0,13.0,16.0,4.0,-1.0,1.0,0.0,3.0
1701619628.2290359,13.0,24.0,-33.0,-17.0,0.0,3.0,5.0,1.0
1701619628.2290359,43.0,16.0,15.0,7.0,5.0,-1.0,-6.0,1.0
1701619628.2290359,-37.0,-4.0,-13.0,-6.0,-1.0,-4.0,-11.0,-7.0
1701619628.239281,-23.0,-26.0,-23.0,-12.0,-6.0,-4.0,8.0,4.0
1701619628.239281,19.0,61.0,-29.0,-28.0,-7.0,0.0,5.0,-1.0
1701619628.239281,-9.0,-8.0,61.0,23.0,-1.0,-1.0,0.0,-2.0
1701619628.239281,-15.0,28.0,-14.0,6.0,2.0,0.0,-5.0,3.0
1701619628.2690356,-15.0,8.0,4.0,-13.0,-5.0,-4.0,-16.0,-6.0
1701619628.2690356,-1.0,7.0,-12.0,13.0,-4.0,-3.0,-2.0,-5.0
1701619628.2690356,8.0,-39.0,-15.0,-10.0,-2.0,0.0,-9.0,-2.0
1701619628.2690356,22.0,-2.0,-9.0,-7.0,-1.0,3.0,16.0,4.0
1701619628.2690356,6.0,72.0,27.0,16.0,4.0,-1.0,-1.0,-2.0
1701619628.2690356,22.0,-23.0,4.0,-13.0,0.0,0.0,6.0,2.0
1701619628.2791224,-44.0,-59.0,-50.0,-11.0,-7.0,-8.0,-10.0,-11.0
1701619628.2791224,16.0,-30.0,20.0,19.0,11.0,8.0,3.0,6.0
1701619628.2990427,-22.0,-29.0,-18.0,-24.0,-9.0,-2.0,-9.0,-3.0
1701619628.2990427,-2.0,-1.0,40.0,14.0,3.0,0.0,-7.0,-4.0
1701619628.2990427,-9.0,57.0,-26.0,20.0,1.0,1.0,12.0,3.0
1701619628.2990427,-3.0,-19.0,-51.0,-29.0,-10.0,-8.0,-3.0,-3.0
1701619628.3290343,39.0,-8.0,9.0,-4.0,3.0,5.0,7.0,2.0
1701619628.3290343,-1.0,-3.0,29.0,13.0,2.0,-2.0,-3.0,0.0
1701619628.3290343,-32.0,-40.0,-24.0,-4.0,-4.0,-4.0,-5.0,-7.0
1701619628.3290343,13.0,24.0,38.0,5.0,2.0,0.0,-10.0,-3.0
1701619628.3290343,28.0,26.0,-34.0,-13.0,2.0,3.0,10.0,3.0
1701619628.3290343,-47.0,-22.0,53.0,31.0,-2.0,-4.0,-3.0,-9.0
1701619628.339356,10.0,8.0,3.0,-15.0,2.0,2.0,10.0,7.0
1701619628.339356,17.0,-12.0,-15.0,-23.0,-10.0,-6.0,-13.0,-3.0
1701619628.3594706,22.0,44.0,43.0,17.0,-3.0,-7.0,-21.0,0.0
1701619628.3594706,-11.0,-19.0,-2.0,-5.0,-3.0,2.0,13.0,-2.0
1701619628.3594706,29.0,-15.0,18.0,10.0,5.0,5.0,7.0,3.0
1701619628.3594706,-20.0,29.0,27.0,-11.0,-5.0,-2.0,3.0,-4.0
1701619628.379036,-1.0,-35.0,-60.0,-14.0,-2.0,-3.0,-20.0,-4.0
1701619628.379036,-19.0,33.0,4.0,3.0,5.0,2.0,12.0,2.0
1701619628.379036,15.0,21.0,11.0,1.0,-3.0,-3.0,-7.0,0.0
1701619628.379036,-27.0,-52.0,-25.0,-10.0,-2.0,-5.0,-7.0,-8.0
1701619628.3893723,-2.0,-54.0,51.0,23.0,-3.0,3.0,3.0,-5.0
1701619628.3893723,25.0,33.0,-7.0,-4.0,-2.0,-1.0,1.0,3.0
1701619628.4094636,-7.0,25.0,-18.0,-12.0,3.0,3.0,2.0,3.0
1701619628.4094636,4.0,-11.0,14.0,8.0,0.0,-2.0,5.0,3.0
1701619628.419038,8.0,2.0,-47.0,-10.0,0.0,-1.0,-14.0,-1.0
1701619628.419038,-7.0,-33.0,-19.0,0.0,0.0,-1.0,3.0,0.0
1701619628.419038,-14.0,3.0,32.0,1.0,-3.0,-3.0,-3.0,-3.0
1701619628.419038,17.0,18.0,6.0,6.0,0.0,-2.0,-1.0,-1.0
1701619628.439266,-4.0,-19.0,-72.0,-13.0,1.0,1.0,-2.0,-3.0
1701619628.439266,39.0,-4.0,16.0,-6.0,-5.0,-3.0,-2.0,-3.0
1701619628.439266,-2.0,-6.0,-3.0,12.0,2.0,1.0,-1.0,-1.0
1701619628.439266,10.0,18.0,-25.0,-17.0,-3.0,-4.0,-4.0,-4.0
1701619628.4493055,-10.0,-49.0,69.0,21.0,-1.0,-3.0,-1.0,2.0
1701619628.4493055,-26.0,-19.0,-105.0,-33.0,-3.0,-4.0,-10.0,-6.0
1701619628.4591033,28.0,-15.0,38.0,8.0,5.0,0.0,-3.0,0.0
1701619628.4591033,-32.0,2.0,-14.0,-1.0,-1.0,0.0,6.0,-1.0
1701619628.4790387,36.0,3.0,13.0,21.0,6.0,1.0,-5.0,3.0
1701619628.4790387,-66.0,-23.0,4.0,-6.0,-4.0,-3.0,-11.0,-3.0
1701619628.4790387,1.0,-5.0,-9.0,-16.0,-4.0,-1.0,2.0,-2.0
1701619628.4790387,37.0,-24.0,-31.0,10.0,1.0,1.0,-6.0,2.0
1701619628.4994335,-70.0,35.0,-37.0,-34.0,-5.0,-2.0,17.0,-3.0
1701619628.4994335,42.0,16.0,48.0,32.0,5.0,2.0,0.0,6.0
1701619628.4994335,-28.0,19.0,-9.0,-17.0,-17.0,-11.0,-13.0,-10.0
1701619628.4994335,14.0,1.0,-72.0,-15.0,-2.0,2.0,6.0,5.0
1701619628.5093932,2.0,46.0,71.0,17.0,-1.0,0.0,0.0,1.0
1701619628.5093932,-38.0,-6.0,0.0,-3.0,8.0,7.0,5.0,0.0
1701619628.5193644,3.0,3.0,15.0,5.0,0.0,0.0,2.0,-1.0
1701619628.5193644,10.0,101.0,33.0,11.0,-1.0,-1.0,-5.0,-1.0
1701619628.5490344,7.0,-15.0,58.0,0.0,-3.0,-1.0,1.0,-3.0
1701619628.5490344,49.0,13.0,-74.0,-10.0,0.0,-2.0,-1.0,1.0
1701619628.5490344,-74.0,-31.0,5.0,0.0,-1.0,2.0,-2.0,-9.0
1701619628.5490344,17.0,-79.0,22.0,4.0,0.0,0.0,-7.0,1.0
1701619628.5593069,63.0,37.0,4.0,-3.0,1.0,1.0,9.0,5.0
1701619628.5593069,-54.0,56.0,28.0,13.0,2.0,2.0,1.0,-5.0
1701619628.5593069,-25.0,20.0,-58.0,-25.0,0.0,0.0,-2.0,-1.0
1701619628.5593069,-24.0,-33.0,26.0,3.0,-1.0,-5.0,-3.0,-4.0
1701619628.5690393,9.0,0.0,-38.0,-9.0,-10.0,-5.0,7.0,2.0
1701619628.5690393,109.0,-53.0,6.0,-5.0,-9.0,-5.0,-17.0,3.0
1701619628.589362,-72.0,3.0,-8.0,18.0,2.0,-2.0,-8.0,-11.0
1701619628.589362,-25.0,-10.0,51.0,-18.0,1.0,1.0,3.0,3.0
1701619628.6190362,6.0,-65.0,-38.0,-2.0,4.0,4.0,5.0,0.0
1701619628.6190362,38.0,78.0,46.0,7.0,1.0,3.0,7.0,9.0
1701619628.6190362,43.0,5.0,-32.0,-29.0,-12.0,-8.0,-7.0,-6.0
1701619628.6190362,2.0,-9.0,13.0,7.0,-1.0,1.0,-2.0,1.0
1701619628.6190362,-17.0,-23.0,-6.0,4.0,7.0,3.0,-4.0,-2.0
1701619628.6190362,-35.0,-86.0,16.0,6.0,-3.0,-1.0,2.0,-5.0
1701619628.6190362,13.0,16.0,3.0,1.0,3.0,2.0,2.0,5.0
1701619628.6190362,-9.0,2.0,-12.0,23.0,7.0,5.0,1.0,-1.0
1701619628.6291387,7.0,14.0,67.0,-4.0,-10.0,-5.0,-6.0,-6.0
1701619628.6291387,-27.0,20.0,-68.0,-25.0,-3.0,-4.0,-2.0,-3.0
1701619628.6534271,50.0,9.0,-18.0,1.0,-5.0,-6.0,-3.0,3.0
1701619628.6534271,-75.0,-46.0,-28.0,12.0,0.0,-2.0,1.0,-11.0
1701619628.6602826,-22.0,-29.0,29.0,3.0,-1.0,-2.0,-1.0,3.0
1701619628.6613586,-28.0,13.0,-17.0,-3.0,-9.0,-5.0,-2.0,-7.0
1701619628.6623456,-2.0,-46.0,19.0,8.0,11.0,0.0,-5.0,-2.0
1701619628.6623456,33.0,43.0,75.0,30.0,15.0,6.0,0.0,2.0
1701619628.681248,-5.0,-6.0,-71.0,-4.0,-8.0,-5.0,-7.0,-6.0
1701619628.681248,-4.0,-16.0,-33.0,-35.0,-4.0,-3.0,3.0,2.0
1701619628.681248,39.0,54.0,27.0,-1.0,-4.0,3.0,7.0,8.0
1701619628.681248,-12.0,-27.0,16.0,8.0,6.0,-1.0,-2.0,-3.0
1701619628.691596,9.0,65.0,-50.0,-26.0,-4.0,-3.0,-7.0,-1.0
1701619628.691596,-27.0,61.0,55.0,32.0,5.0,4.0,4.0,-2.0
1701619628.7015667,-32.0,-109.0,-58.0,-4.0,-6.0,-3.0,-2.0,-7.0
1701619628.7015667,76.0,66.0,15.0,-6.0,-4.0,-1.0,1.0,8.0
1701619628.7212467,-9.0,-13.0,43.0,23.0,4.0,3.0,3.0,7.0
1701619628.7212467,-13.0,-2.0,-21.0,-25.0,0.0,-3.0,-5.0,-5.0
1701619628.7212467,48.0,0.0,23.0,-5.0,-5.0,-1.0,-1.0,1.0
1701619628.7212467,-4.0,54.0,-48.0,-8.0,-2.0,-1.0,-1.0,-4.0
1701619628.741658,7.0,-57.0,-16.0,-4.0,1.0,0.0,0.0,-6.0
1701619628.741658,15.0,7.0,1.0,12.0,-5.0,-5.0,-7.0,-2.0
1701619628.741658,-40.0,-27.0,-3.0,1.0,7.0,3.0,2.0,-3.0
1701619628.741658,4.0,-26.0,-8.0,-9.0,-10.0,-5.0,-6.0,-4.0
1701619628.751648,1.0,54.0,29.0,6.0,2.0,2.0,-3.0,-2.0
1701619628.751648,38.0,-2.0,-3.0,-25.0,-3.0,1.0,2.0,5.0
1701619628.7615995,18.0,40.0,27.0,18.0,2.0,2.0,3.0,4.0
1701619628.7615995,-13.0,-11.0,-11.0,3.0,2.0,-3.0,-5.0,-1.0
1701619628.7812467,-62.0,-90.0,-53.0,-35.0,-3.0,-4.0,-8.0,-9.0
1701619628.7812467,25.0,-14.0,61.0,36.0,-1.0,1.0,0.0,2.0
1701619628.7812467,20.0,3.0,-70.0,-35.0,3.0,0.0,1.0,1.0
1701619628.7812467,-22.0,0.0,-41.0,-11.0,0.0,-1.0,-2.0,-3.0
1701619628.8015401,-34.0,1.0,60.0,34.0,6.0,2.0,0.0,-3.0
1701619628.8015401,-23.0,-20.0,-11.0,-15.0,-9.0,-6.0,-2.0,-3.0
1701619628.8015401,-10.0,-5.0,29.0,10.0,-3.0,-2.0,-2.0,0.0
1701619628.8015401,15.0,28.0,5.0,-18.0,-6.0,0.0,3.0,3.0
1701619628.811531,35.0,-11.0,-37.0,0.0,0.0,-2.0,2.0,3.0
1701619628.811531,-7.0,-7.0,-39.0,-6.0,-4.0,-2.0,-1.0,-3.0
1701619628.8412464,-39.0,44.0,28.0,3.0,-3.0,-2.0,-6.0,-5.0
1701619628.8412464,4.0,-7.0,-38.0,-9.0,-2.0,1.0,4.0,1.0
1701619628.8412464,9.0,-1.0,23.0,-8.0,0.0,2.0,-3.0,-1.0
1701619628.8412464,-23.0,-13.0,-3.0,-1.0,2.0,-1.0,-2.0,-3.0
1701619628.8412464,-5.0,-36.0,5.0,8.0,3.0,1.0,1.0,2.0
1701619628.8412464,27.0,18.0,59.0,31.0,7.0,4.0,2.0,4.0
1701619628.8615012,-24.0,-6.0,-26.0,-40.0,-21.0,-14.0,-6.0,-7.0
1701619628.8615012,35.0,28.0,56.0,29.0,2.0,3.0,-1.0,3.0
1701619628.8615012,44.0,20.0,-95.0,-30.0,-2.0,-2.0,-1.0,0.0
1701619628.8615012,-93.0,-60.0,98.0,4.0,-12.0,-3.0,-2.0,-8.0
1701619628.8812456,26.0,8.0,17.0,6.0,12.0,1.0,-1.0,2.0
1701619628.8812456,-32.0,33.0,9.0,-1.0,1.0,1.0,0.0,-4.0
1701619628.8912442,22.0,37.0,28.0,-7.0,-4.0,3.0,3.0,3.0
1701619628.8912442,5.0,-58.0,-51.0,-26.0,-17.0,-8.0,-7.0,-2.0
1701619628.9012508,20.0,48.0,-47.0,7.0,13.0,3.0,2.0,2.0
1701619628.9012508,-47.0,-17.0,30.0,-7.0,-2.0,-1.0,-1.0,-2.0
1701619628.9012508,8.0,-3.0,-20.0,-6.0,-8.0,1.0,3.0,2.0
1701619628.9012508,27.0,9.0,75.0,41.0,8.0,2.0,1.0,1.0
1701619628.921566,29.0,12.0,-87.0,-38.0,-19.0,-6.0,-1.0,5.0
1701619628.921566,-6.0,49.0,21.0,0.0,6.0,-2.0,-4.0,-7.0
1701619628.921566,11.0,16.0,29.0,-12.0,-10.0,-2.0,1.0,-2.0
1701619628.921566,-13.0,2.0,-5.0,27.0,-4.0,-4.0,-3.0,-4.0
1701619628.951249,-8.0,38.0,31.0,3.0,12.0,8.0,4.0,-2.0
1701619628.951249,26.0,-17.0,-22.0,-5.0,26.0,11.0,5.0,8.0
1701619628.951249,-11.0,49.0,-73.0,17.0,-3.0,-5.0,-5.0,0.0
1701619628.951249,39.0,16.0,19.0,-13.0,-1.0,-2.0,1.0,2.0
1701619628.9616053,-14.0,-24.0,-45.0,-4.0,-8.0,-5.0,-5.0,-5.0
1701619628.9616053,27.0,7.0,51.0,16.0,-7.0,-2.0,-1.0,-2.0
1701619628.9616053,-66.0,-52.0,40.0,-14.0,1.0,2.0,3.0,1.0
1701619628.9616053,-2.0,15.0,-83.0,-30.0,-7.0,1.0,1.0,0.0
1701619628.9816804,-27.0,45.0,82.0,37.0,5.0,4.0,2.0,-1.0
1701619628.9816804,-1.0,-128.0,-118.0,-25.0,-8.0,-10.0,-10.0,-6.0
1701619628.9816804,38.0,21.0,55.0,9.0,2.0,-2.0,0.0,4.0
1701619628.9816804,-40.0,39.0,31.0,0.0,5.0,5.0,0.0,-8.0
1701619629.0112453,-19.0,-61.0,-29.0,-4.0,-4.0,-4.0,-4.0,-2.0
1701619629.0112453,26.0,0.0,24.0,2.0,-7.0,0.0,1.0,0.0
1701619629.0112453,-20.0,5.0,26.0,27.0,3.0,-4.0,-2.0,-7.0
1701619629.0112453,21.0,27.0,-27.0,-45.0,-7.0,-4.0,-1.0,2.0
1701619629.0112453,5.0,21.0,72.0,16.0,0.0,0.0,-3.0,-4.0
1701619629.0112453,24.0,-72.0,29.0,36.0,4.0,3.0,0.0,2.0
1701619629.0214605,-43.0,4.0,-65.0,-26.0,-6.0,-3.0,-2.0,-6.0
1701619629.0214605,-8.0,-95.0,27.0,-8.0,0.0,-2.0,1.0,-2.0
1701619629.0415745,-21.0,-33.0,-60.0,-2.0,-5.0,-1.0,-1.0,-2.0
1701619629.0415745,41.0,69.0,25.0,10.0,7.0,3.0,2.0,8.0
1701619629.0415745,-9.0,-25.0,22.0,24.0,9.0,3.0,-1.0,-1.0
1701619629.0415745,-23.0,48.0,18.0,10.0,2.0,-3.0,-4.0,-8.0
1701619629.0612786,23.0,-18.0,6.0,13.0,6.0,5.0,5.0,6.0
1701619629.0612786,-43.0,-30.0,-23.0,-11.0,-14.0,-9.0,-6.0,-8.0
1701619629.0612786,13.0,5.0,-26.0,1.0,4.0,4.0,2.0,4.0
1701619629.0612786,42.0,-15.0,-31.0,-9.0,8.0,3.0,0.0,4.0
1701619629.0716228,-13.0,-6.0,-55.0,-18.0,-10.0,-7.0,-4.0,-3.0
1701619629.0716228,-36.0,12.0,9.0,-4.0,2.0,-2.0,-4.0,-6.0
1701619629.0815635,66.0,-35.0,-26.0,-10.0,1.0,0.0,0.0,5.0
1701619629.0815635,-30.0,45.0,21.0,-5.0,-7.0,-4.0,-6.0,-5.0
1701619629.1012452,-16.0,10.0,46.0,1.0,-1.0,1.0,-1.0,-2.0
1701619629.1012452,33.0,78.0,-80.0,-5.0,-5.0,-2.0,2.0,4.0
1701619629.1012452,-77.0,-65.0,5.0,-18.0,-9.0,-8.0,-6.0,-4.0
1701619629.1012452,49.0,56.0,-4.0,27.0,7.0,4.0,3.0,6.0
1701619629.1215258,-20.0,-46.0,36.0,-4.0,0.0,-2.0,-3.0,-8.0
1701619629.1215258,-36.0,-19.0,-88.0,-53.0,-16.0,-7.0,-4.0,-5.0
1701619629.1215258,51.0,63.0,70.0,23.0,4.0,2.0,0.0,1.0
1701619629.1215258,-66.0,-26.0,-4.0,0.0,3.0,1.0,1.0,2.0
1701619629.1315126,34.0,69.0,63.0,9.0,3.0,2.0,1.0,2.0
1701619629.1315126,9.0,0.0,-19.0,-2.0,-7.0,1.0,0.0,0.0
1701619629.141251,-8.0,-85.0,19.0,-2.0,4.0,0.0,0.0,-4.0
1701619629.141251,4.0,2.0,-64.0,-11.0,-7.0,-4.0,-5.0,-3.0
1701619629.171251,29.0,51.0,94.0,35.0,13.0,5.0,3.0,7.0
1701619629.171251,-20.0,-46.0,-54.0,-20.0,8.0,5.0,3.0,3.0
1701619629.171251,-16.0,36.0,5.0,12.0,-6.0,-7.0,-7.0,-5.0
1701619629.171251,9.0,-19.0,31.0,-12.0,-10.0,-3.0,0.0,0.0
1701619629.1852236,7.0,17.0,9.0,8.0,-1.0,-1.0,-3.0,0.0
1701619629.1852236,23.0,52.0,40.0,11.0,3.0,0.0,0.0,1.0
1701619629.186935,12.0,-21.0,-33.0,-29.0,-14.0,-3.0,-2.0,-1.0
1701619629.186935,39.0,-19.0,70.0,29.0,8.0,3.0,3.0,4.0
1701619629.199725,-70.0,-85.0,-100.0,-42.0,-18.0,-14.0,-15.0,-19.0
1701619629.199725,-12.0,22.0,-22.0,-20.0,5.0,1.0,0.0,-3.0
1701619629.2067416,56.0,49.0,2.0,-6.0,1.0,1.0,2.0,6.0
1701619629.2067416,-50.0,1.0,-55.0,-30.0,-7.0,-2.0,-4.0,-6.0
1701619629.2156909,22.0,-37.0,44.0,30.0,-7.0,-4.0,-1.0,4.0
1701619629.2156909,-14.0,-21.0,106.0,29.0,13.0,1.0,1.0,-2.0
1701619629.2156909,-23.0,8.0,-71.0,15.0,5.0,1.0,-3.0,-7.0
1701619629.2156909,20.0,8.0,-1.0,-21.0,-1.0,-1.0,1.0,5.0
1701619629.2457588,-4.0,-52.0,-61.0,-31.0,-4.0,1.0,0.0,-1.0
1701619629.2457588,24.0,63.0,25.0,30.0,4.0,3.0,4.0,6.0
1701619629.2457588,15.0,-17.0,16.0,6.0,8.0,2.0,0.0,0.0
1701619629.2457588,-63.0,-64.0,32.0,26.0,-2.0,-4.0,-5.0,-11.0
1701619629.2556963,-43.0,-12.0,-28.0,-33.0,-5.0,-3.0,-5.0,-5.0
1701619629.2556963,-2.0,-73.0,39.0,10.0,-2.0,0.0,1.0,0.0
1701619629.2659001,13.0,7.0,-12.0,-5.0,0.0,1.0,0.0,-1.0
1701619629.2659001,-4.0,6.0,29.0,-6.0,-9.0,-6.0,-6.0,-4.0
1701619629.285711,6.0,21.0,29.0,41.0,18.0,6.0,4.0,4.0
1701619629.285711,-6.0,11.0,-52.0,-18.0,2.0,1.0,-2.0,-2.0
1701619629.285711,-9.0,1.0,47.0,-3.0,-4.0,-4.0,-1.0,-1.0
1701619629.285711,20.0,-23.0,-32.0,3.0,-2.0,-3.0,1.0,-3.0
1701619629.3057504,7.0,10.0,7.0,7.0,6.0,2.0,2.0,1.0
1701619629.3057504,20.0,-30.0,20.0,5.0,-2.0,1.0,-2.0,-1.0
1701619629.3057504,-56.0,14.0,17.0,-5.0,-3.0,-3.0,-4.0,-5.0
1701619629.3057504,39.0,-13.0,-21.0,8.0,2.0,2.0,0.0,1.0
1701619629.3257012,4.0,-30.0,14.0,-5.0,-5.0,-4.0,6.0,-4.0
1701619629.3356967,-26.0,-46.0,-56.0,-5.0,-7.0,-7.0,-13.0,-5.0
1701619629.3356967,-10.0,-19.0,-23.0,-16.0,-9.0,-3.0,-4.0,-3.0
1701619629.3356967,25.0,95.0,14.0,-6.0,18.0,8.0,6.0,7.0
1701619629.3356967,-1.0,24.0,-31.0,8.0,-1.0,-1.0,0.0,-1.0
1701619629.3356967,2.0,-82.0,-3.0,-15.0,-4.0,-4.0,-2.0,-5.0
1701619629.3356967,-21.0,16.0,24.0,6.0,3.0,-1.0,-3.0,3.0
1701619629.3356967,-11.0,-17.0,-9.0,-8.0,-9.0,-1.0,-5.0,-3.0
1701619629.3561437,27.0,37.0,-2.0,-8.0,-4.0,-4.0,-6.0,-2.0
1701619629.3661592,7.0,49.0,45.0,15.0,-8.0,-6.0,5.0,0.0
1701619629.3661592,2.0,19.0,10.0,-9.0,-4.0,2.0,9.0,0.0
1701619629.3661592,3.0,-15.0,-17.0,-6.0,-7.0,-7.0,-12.0,-3.0
1701619629.3763638,14.0,44.0,-13.0,-8.0,3.0,4.0,-8.0,7.0
1701619629.3763638,-6.0,3.0,22.0,10.0,-1.0,-1.0,1.0,-2.0
1701619629.386156,-26.0,-16.0,20.0,4.0,1.0,2.0,3.0,-4.0
1701619629.386156,-8.0,-40.0,3.0,16.0,0.0,-3.0,0.0,-2.0
1701619629.3965428,9.0,50.0,39.0,17.0,-4.0,-3.0,2.0,1.0
1701619629.3965428,-39.0,-13.0,-13.0,-9.0,7.0,3.0,-3.0,-5.0
1701619629.3965428,5.0,27.0,11.0,-25.0,-6.0,-2.0,-1.0,2.0
1701619629.3965428,13.0,-68.0,-30.0,-7.0,-10.0,-5.0,-2.0,0.0
1701619629.416579,3.0,35.0,34.0,3.0,-9.0,-3.0,-2.0,0.0
1701619629.416579,9.0,20.0,11.0,15.0,19.0,6.0,-1.0,1.0
1701619629.4261565,37.0,32.0,-26.0,-28.0,-9.0,-1.0,0.0,1.0
1701619629.4261565,-37.0,-8.0,51.0,25.0,5.0,-1.0,-3.0,-9.0
1701619629.4361975,6.0,-18.0,-59.0,-16.0,-8.0,-5.0,-7.0,-4.0
1701619629.4361975,-15.0,-53.0,-44.0,-22.0,-10.0,-2.0,-1.0,-5.0
1701619629.446155,18.0,7.0,-20.0,-3.0,2.0,0.0,2.0,1.0
1701619629.446155,12.0,17.0,-7.0,-8.0,-5.0,-2.0,12.0,4.0
1701619629.4561887,-19.0,-5.0,26.0,-2.0,2.0,3.0,-4.0,-2.0
1701619629.4561887,7.0,1.0,23.0,16.0,2.0,2.0,-2.0,1.0
1701619629.4561887,-9.0,-7.0,-38.0,0.0,4.0,-3.0,-17.0,-4.0
1701619629.4561887,16.0,30.0,-19.0,-3.0,0.0,-1.0,-1.0,10.0
1701619629.496163,5.0,-39.0,25.0,15.0,3.0,-2.0,4.0,-9.0
1701619629.496163,-55.0,61.0,-5.0,-14.0,-4.0,1.0,-2.0,-5.0
1701619629.5061564,-37.0,-39.0,15.0,16.0,1.0,-5.0,-2.0,-10.0
1701619629.5061564,-27.0,40.0,-16.0,-15.0,-1.0,-3.0,-1.0,0.0
1701619629.5061564,14.0,-10.0,-3.0,8.0,6.0,7.0,4.0,7.0
1701619629.5061564,37.0,-6.0,-35.0,-19.0,-6.0,-2.0,8.0,6.0
1701619629.5061564,-1.0,33.0,59.0,19.0,-1.0,-1.0,-5.0,-2.0
1701619629.5061564,-18.0,-31.0,-75.0,-7.0,-2.0,4.0,17.0,-5.0
1701619629.5165498,17.0,42.0,55.0,1.0,4.0,-2.0,-29.0,1.0
1701619629.5165498,20.0,13.0,-6.0,-4.0,1.0,2.0,0.0,-2.0
1701619629.5165498,-7.0,-43.0,-3.0,6.0,2.0,3.0,13.0,4.0
1701619629.5165498,13.0,-7.0,21.0,19.0,-1.0,-5.0,-23.0,-8.0
1701619629.546157,-10.0,-3.0,28.0,-3.0,-11.0,-8.0,-1.0,-2.0
1701619629.546157,15.0,10.0,-9.0,-23.0,-13.0,-6.0,13.0,1.0
1701619629.546157,-7.0,10.0,-5.0,7.0,6.0,7.0,-14.0,-2.0
1701619629.546157,12.0,-15.0,20.0,5.0,9.0,-2.0,-10.0,-6.0
1701619629.5561903,20.0,-24.0,-11.0,0.0,1.0,-1.0,3.0,10.0
1701619629.5561903,-27.0,27.0,5.0,11.0,4.0,5.0,22.0,-5.0
1701619629.5664573,7.0,-79.0,10.0,12.0,1.0,-4.0,-10.0,1.0
1701619629.5664573,-38.0,-45.0,-29.0,-14.0,-6.0,0.0,-1.0,-10.0
1701619629.5761604,-16.0,-19.0,-57.0,-18.0,-4.0,-5.0,-7.0,-5.0
1701619629.5761604,23.0,-2.0,-6.0,-19.0,-10.0,-7.0,-11.0,1.0
1701619629.5761604,20.0,-7.0,-25.0,3.0,7.0,5.0,13.0,6.0
1701619629.5761604,16.0,-15.0,29.0,-5.0,0.0,0.0,-17.0,0.0
1701619629.616158,-102.0,13.0,7.0,-11.0,1.0,4.0,5.0,-5.0
1701619629.616158,33.0,-1.0,22.0,14.0,-3.0,-2.0,-7.0,2.0
1701619629.626158,8.0,55.0,6.0,7.0,3.0,-2.0,4.0,-3.0
1701619629.626158,-72.0,-39.0,-39.0,-27.0,-5.0,0.0,7.0,-6.0
1701619629.626158,41.0,-5.0,0.0,-5.0,-3.0,-4.0,-6.0,-1.0
1701619629.626158,-24.0,41.0,52.0,14.0,2.0,1.0,3.0,4.0
1701619629.626158,3.0,38.0,-57.0,-7.0,-5.0,-4.0,-12.0,-3.0
1701619629.626158,17.0,52.0,-2.0,13.0,2.0,-1.0,1.0,2.0
1701619629.6364086,-10.0,-94.0,-34.0,-19.0,1.0,4.0,13.0,-5.0
1701619629.6364086,15.0,-3.0,7.0,-5.0,-7.0,-4.0,-15.0,-1.0
1701619629.6364086,42.0,31.0,88.0,35.0,9.0,3.0,8.0,11.0
1701619629.6364086,22.0,-15.0,-69.0,0.0,3.0,3.0,5.0,0.0
1701619629.6861591,-4.0,3.0,-27.0,-37.0,-9.0,-1.0,4.0,-2.0
1701619629.6861591,-4.0,-78.0,69.0,49.0,2.0,-8.0,-15.0,-6.0
1701619629.6861591,-48.0,-25.0,-99.0,-44.0,6.0,0.0,2.0,-8.0
1701619629.6861591,67.0,-11.0,76.0,-20.0,-17.0,1.0,4.0,9.0
1701619629.6861591,-16.0,75.0,67.0,40.0,9.0,0.0,1.0,0.0
1701619629.6861591,-24.0,49.0,-33.0,-3.0,14.0,3.0,-4.0,0.0
1701619629.6861591,-12.0,-43.0,-32.0,-27.0,-17.0,-3.0,1.0,-2.0
1701619629.6861591,-22.0,-83.0,-47.0,-15.0,-8.0,-5.0,-2.0,-5.0
1701619629.696375,54.0,87.0,26.0,3.0,6.0,4.0,6.0,8.0
1701619629.696375,-62.0,-40.0,20.0,-11.0,2.0,0.0,-2.0,-6.0
1701619629.696375,35.0,-11.0,32.0,23.0,-8.0,-7.0,-7.0,-7.0
1701619629.696375,-21.0,18.0,-1.0,-11.0,-5.0,-3.0,-1.0,1.0
1701619629.727831,15.0,-10.0,-65.0,-18.0,-11.0,-6.0,0.0,-4.0
1701619629.727831,16.0,37.0,50.0,27.0,5.0,4.0,6.0,6.0
1701619629.727831,-51.0,-75.0,-69.0,-44.0,-22.0,-15.0,-14.0,-11.0
1701619629.727831,31.0,65.0,17.0,38.0,27.0,12.0,9.0,10.0
1701619629.7401474,-2.0,-81.0,12.0,-1.0,8.0,3.0,0.0,-6.0
1701619629.7401474,-4.0,26.0,-71.0,-21.0,-3.0,-4.0,-3.0,-4.0
1701619629.750421,26.0,7.0,27.0,16.0,-1.0,-1.0,2.0,4.0
1701619629.750421,-20.0,63.0,-98.0,-66.0,-20.0,-8.0,-7.0,-8.0
1701619629.7604294,-20.0,-16.0,67.0,35.0,0.0,-1.0,-1.0,-3.0
1701619629.7604294,31.0,-3.0,34.0,-7.0,-3.0,3.0,1.0,2.0
1701619629.7604294,-6.0,3.0,70.0,37.0,14.0,7.0,8.0,2.0
1701619629.7604294,19.0,-19.0,21.0,11.0,5.0,-2.0,0.0,4.0
1701619629.780145,-1.0,62.0,-42.0,-11.0,1.0,-2.0,-3.0,1.0
1701619629.780145,-36.0,-97.0,-24.0,3.0,-13.0,-10.0,-9.0,-10.0
1701619629.780145,6.0,52.0,-34.0,-16.0,-4.0,3.0,3.0,2.0
1701619629.780145,-12.0,-22.0,57.0,17.0,3.0,0.0,6.0,-3.0
1701619629.8001463,31.0,10.0,52.0,9.0,2.0,5.0,-10.0,5.0
1701619629.8001463,7.0,13.0,-65.0,-17.0,-4.0,-5.0,-1.0,0.0
1701619629.8001463,-3.0,-17.0,25.0,13.0,11.0,4.0,14.0,2.0
1701619629.8001463,13.0,13.0,-7.0,4.0,-5.0,-7.0,-29.0,-2.0
1701619629.8205714,45.0,36.0,17.0,2.0,-5.0,-2.0,5.0,2.0
1701619629.8205714,-59.0,-32.0,8.0,6.0,7.0,6.0,4.0,2.0
1701619629.8205714,4.0,-32.0,-15.0,-19.0,-2.0,-3.0,-9.0,-3.0
1701619629.8205714,-21.0,52.0,26.0,9.0,-4.0,0.0,11.0,-3.0
1701619629.8501437,-4.0,6.0,-41.0,13.0,1.0,-1.0,-8.0,-2.0
1701619629.8501437,23.0,36.0,-16.0,-22.0,-3.0,-2.0,-6.0,-2.0
1701619629.8501437,9.0,8.0,23.0,4.0,-7.0,-3.0,1.0,-2.0
1701619629.8501437,-3.0,-40.0,-76.0,-40.0,-2.0,-2.0,3.0,1.0
1701619629.8605115,-34.0,18.0,35.0,15.0,6.0,-2.0,1.0,-6.0
1701619629.8605115,42.0,-2.0,-10.0,-5.0,1.0,2.0,0.0,4.0
1701619629.8605115,21.0,38.0,-30.0,-4.0,3.0,4.0,3.0,2.0
1701619629.8605115,-17.0,1.0,61.0,28.0,7.0,1.0,6.0,-3.0
1701619629.880572,-3.0,-66.0,-4.0,-2.0,-6.0,-5.0,-5.0,-3.0
1701619629.880572,15.0,47.0,-4.0,21.0,8.0,3.0,-1.0,-2.0
1701619629.880572,-3.0,3.0,-66.0,-68.0,-27.0,-16.0,-11.0,-8.0
1701619629.880572,27.0,27.0,37.0,2.0,0.0,1.0,0.0,5.0
1701619629.9001696,-33.0,-7.0,1.0,9.0,-1.0,0.0,8.0,-4.0
1701619629.9001696,-4.0,15.0,-40.0,-3.0,-7.0,-3.0,-1.0,1.0
1701619629.9001696,7.0,-18.0,11.0,11.0,11.0,1.0,-10.0,-7.0
1701619629.9001696,2.0,-20.0,1.0,4.0,1.0,4.0,18.0,0.0
1701619629.9205403,28.0,-11.0,2.0,-3.0,3.0,-1.0,-5.0,7.0
1701619629.9205403,-12.0,-21.0,2.0,-1.0,-2.0,3.0,9.0,-3.0
1701619629.9205403,-45.0,35.0,20.0,13.0,0.0,1.0,7.0,3.0
1701619629.9205403,-26.0,-38.0,-7.0,-1.0,8.0,5.0,-3.0,0.0
1701619629.9401453,-16.0,-1.0,-38.0,-10.0,-11.0,-6.0,-4.0,-10.0
1701619629.9401453,20.0,-25.0,29.0,5.0,16.0,4.0,-2.0,1.0
1701619629.9401453,-23.0,-37.0,2.0,-7.0,-13.0,-7.0,-6.0,-7.0
1701619629.9401453,13.0,-19.0,61.0,3.0,-10.0,-5.0,-1.0,-1.0
1701619629.9605687,-7.0,62.0,-74.0,-22.0,-10.0,-4.0,-3.0,-3.0
1701619629.9605687,43.0,-61.0,4.0,-21.0,-5.0,1.0,1.0,4.0
1701619629.9605687,14.0,2.0,67.0,26.0,7.0,3.0,-1.0,0.0
1701619629.9605687,27.0,-33.0,15.0,26.0,2.0,1.0,-5.0,0.0
1701619629.980573,-101.0,2.0,-41.0,1.0,15.0,3.0,0.0,-12.0
1701619629.980573,29.0,82.0,59.0,4.0,-14.0,-9.0,-8.0,-2.0
1701619629.980573,24.0,52.0,-44.0,-26.0,3.0,2.0,4.0,5.0
1701619629.980573,18.0,-7.0,-14.0,-17.0,-1.0,1.0,-4.0,0.0
1701619630.0001445,50.0,26.0,73.0,11.0,-14.0,-4.0,3.0,5.0
1701619630.0001445,5.0,3.0,25.0,52.0,9.0,-1.0,3.0,1.0
1701619630.0001445,-28.0,85.0,2.0,-3.0,4.0,1.0,-3.0,-5.0
1701619630.0001445,71.0,-5.0,-45.0,24.0,9.0,1.0,0.0,5.0
1701619630.0304115,-79.0,-16.0,-61.0,-24.0,6.0,0.0,-2.0,-13.0
1701619630.0304115,-7.0,-53.0,-18.0,-83.0,-29.0,-6.0,-5.0,-5.0
1701619630.0304115,5.0,-110.0,20.0,41.0,5.0,-1.0,-1.0,2.0
1701619630.0304115,-4.0,35.0,3.0,-20.0,-5.0,-3.0,-7.0,-1.0
1701619630.040416,31.0,-20.0,34.0,15.0,-3.0,-2.0,0.0,4.0
1701619630.040416,-18.0,-10.0,-22.0,9.0,4.0,1.0,-2.0,-1.0
1701619630.050149,5.0,-37.0,32.0,65.0,18.0,3.0,-1.0,1.0
1701619630.050149,-47.0,7.0,-25.0,-22.0,8.0,3.0,-2.0,-7.0
1701619630.0801423,18.0,-35.0,-50.0,-41.0,-14.0,-5.0,1.0,2.0
1701619630.0801423,-19.0,21.0,24.0,-11.0,3.0,-2.0,-4.0,-2.0
1701619630.0801423,13.0,31.0,-1.0,-18.0,-16.0,-5.0,-3.0,0.0
1701619630.0801423,-5.0,30.0,45.0,22.0,-5.0,-4.0,-5.0,1.0
1701619630.0801423,59.0,51.0,-21.0,26.0,18.0,9.0,7.0,8.0
1701619630.0801423,-50.0,14.0,-33.0,-20.0,-10.0,-6.0,-6.0,-10.0
1701619630.0801423,-29.0,-80.0,37.0,2.0,-5.0,-3.0,0.0,-3.0
1701619630.0801423,-23.0,-17.0,-13.0,-4.0,-2.0,0.0,0.0,-2.0
1701619630.1001444,37.0,11.0,25.0,-2.0,0.0,-2.0,-3.0,5.0
1701619630.1001444,3.0,-14.0,-46.0,2.0,9.0,8.0,7.0,6.0
1701619630.1001444,2.0,26.0,34.0,7.0,-2.0,-2.0,-4.0,-6.0
1701619630.1001444,-20.0,29.0,3.0,-11.0,-13.0,-9.0,-5.0,-4.0
1701619630.120565,21.0,-96.0,11.0,44.0,17.0,4.0,3.0,5.0
1701619630.120565,29.0,112.0,72.0,15.0,1.0,-3.0,0.0,2.0
1701619630.1305585,21.0,-60.0,-51.0,-30.0,9.0,5.0,-1.0,-1.0
1701619630.1305585,-57.0,-52.0,-71.0,-17.0,-21.0,-11.0,-7.0,-7.0
1701619630.1505651,3.0,83.0,77.0,23.0,-3.0,0.0,2.0,-3.0
1701619630.1505651,-25.0,-115.0,-105.0,-43.0,-3.0,-4.0,-6.0,-10.0
1701619630.1505651,12.0,103.0,69.0,-2.0,2.0,-2.0,1.0,5.0
1701619630.1505651,40.0,17.0,-33.0,30.0,5.0,2.0,2.0,2.0
1701619630.1701427,5.0,7.0,-41.0,-6.0,4.0,-1.0,-1.0,1.0
1701619630.1701427,7.0,5.0,41.0,32.0,4.0,0.0,1.0,2.0
1701619630.1701427,21.0,-58.0,-78.0,-45.0,-13.0,-4.0,-4.0,-2.0
1701619630.1701427,-9.0,122.0,45.0,10.0,2.0,1.0,3.0,0.0
1701619630.180404,-20.0,-95.0,-60.0,-28.0,-9.0,1.0,-1.0,-2.0
1701619630.180404,41.0,59.0,48.0,4.0,-4.0,-5.0,-2.0,3.0
1701619630.180404,-23.0,55.0,-23.0,-2.0,2.0,2.0,-1.0,0.0
1701619630.180404,-3.0,-2.0,11.0,10.0,-5.0,-6.0,-5.0,-9.0
1701619630.2004695,-2.0,-46.0,-7.0,-18.0,-6.0,-1.0,1.0,0.0
1701619630.2004695,-31.0,-4.0,-23.0,-23.0,-9.0,-6.0,-7.0,-5.0
1701619630.2004695,-20.0,31.0,22.0,17.0,0.0,1.0,2.0,4.0
1701619630.2004695,-26.0,-31.0,39.0,4.0,6.0,2.0,-2.0,-5.0
1701619630.2476172,-2.0,-21.0,-8.0,-17.0,-3.0,1.0,2.0,3.0
1701619630.2476172,12.0,-13.0,9.0,18.0,3.0,0.0,-1.0,-1.0
1701619630.2486186,-20.0,-19.0,-26.0,-13.0,-3.0,-4.0,-2.0,0.0
1701619630.2486186,25.0,-27.0,-26.0,-19.0,-4.0,0.0,-2.0,0.0
1701619630.2486186,-25.0,-16.0,23.0,-4.0,0.0,0.0,2.0,-1.0
1701619630.2486186,1.0,20.0,85.0,30.0,4.0,2.0,-1.0,-2.0
1701619630.2486186,8.0,67.0,-35.0,8.0,-4.0,-2.0,-3.0,-3.0
1701619630.2486186,17.0,24.0,40.0,5.0,4.0,0.0,0.0,4.0
1701619630.2630787,-13.0,12.0,-37.0,-33.0,-12.0,-6.0,-3.0,-7.0
1701619630.2630787,10.0,13.0,-4.0,4.0,3.0,-1.0,-2.0,4.0
1701619630.2630787,15.0,0.0,31.0,16.0,6.0,5.0,7.0,2.0
1701619630.2630787,-5.0,9.0,4.0,8.0,4.0,1.0,1.0,4.0
1701619630.303077,26.0,19.0,5.0,5.0,4.0,2.0,-2.0,3.0
1701619630.303077,-40.0,-3.0,-27.0,-1.0,-9.0,-5.0,-6.0,-15.0
1701619630.303077,0.0,-17.0,30.0,15.0,7.0,1.0,-1.0,1.0
1701619630.303077,-39.0,-46.0,-55.0,-14.0,-2.0,-3.0,-2.0,-3.0
1701619630.303077,13.0,-33.0,37.0,-31.0,1.0,-1.0,-2.0,-3.0
1701619630.303077,2.0,-35.0,-23.0,-6.0,-10.0,-2.0,1.0,2.0
1701619630.303077,-4.0,-71.0,-7.0,5.0,-11.0,-7.0,-7.0,-5.0
1701619630.303077,5.0,-2.0,20.0,1.0,0.0,3.0,0.0,0.0
1701619630.3330727,-39.0,11.0,25.0,27.0,1.0,-3.0,2.0,-5.0
1701619630.3330727,0.0,-12.0,-19.0,-18.0,0.0,0.0,-3.0,2.0
1701619630.3330727,4.0,27.0,37.0,-12.0,-7.0,-3.0,-4.0,-1.0
1701619630.3330727,23.0,9.0,19.0,1.0,-2.0,1.0,-1.0,1.0
1701619630.3433452,14.0,18.0,-18.0,11.0,-3.0,-2.0,2.0,-2.0
1701619630.3433452,-8.0,-37.0,-5.0,-5.0,2.0,2.0,10.0,0.0
1701619630.3433452,6.0,5.0,-32.0,-9.0,2.0,1.0,-5.0,1.0
1701619630.3433452,-23.0,44.0,2.0,-2.0,1.0,1.0,6.0,0.0
1701619630.3533258,-14.0,-5.0,20.0,9.0,-2.0,-6.0,-20.0,-3.0
1701619630.3533258,40.0,35.0,-2.0,9.0,4.0,1.0,3.0,2.0
1701619630.3632352,-21.0,14.0,25.0,2.0,3.0,-1.0,1.0,-2.0
1701619630.3632352,37.0,21.0,-14.0,15.0,3.0,2.0,3.0,5.0
1701619630.383147,-65.0,9.0,-27.0,-25.0,-8.0,3.0,6.0,-6.0
1701619630.383147,44.0,46.0,95.0,10.0,-12.0,-6.0,-8.0,5.0
1701619630.383147,-34.0,-56.0,-98.0,-32.0,-2.0,-2.0,-1.0,-8.0
1701619630.383147,-37.0,26.0,27.0,-18.0,2.0,-2.0,-7.0,-8.0
1701619630.4130716,38.0,35.0,9.0,0.0,-11.0,-4.0,-1.0,5.0
1701619630.4130716,-30.0,-9.0,-25.0,8.0,8.0,1.0,-3.0,-7.0
1701619630.4130716,12.0,39.0,73.0,16.0,3.0,3.0,5.0,4.0
1701619630.4130716,18.0,-65.0,-67.0,-26.0,-9.0,-4.0,-2.0,-3.0
1701619630.4130716,32.0,-12.0,-25.0,19.0,3.0,0.0,-2.0,5.0
1701619630.4130716,-93.0,-70.0,10.0,-16.0,-11.0,-8.0,-7.0,-15.0
1701619630.4232237,20.0,10.0,0.0,5.0,7.0,2.0,6.0,3.0
1701619630.4232237,1.0,15.0,-19.0,-3.0,1.0,0.0,-5.0,-2.0
1701619630.443303,69.0,25.0,50.0,6.0,-8.0,-1.0,0.0,6.0
1701619630.443303,-67.0,-54.0,-128.0,-37.0,-11.0,-7.0,-3.0,-9.0
1701619630.443303,-18.0,-53.0,110.0,17.0,8.0,-1.0,-3.0,-3.0
1701619630.443303,39.0,-43.0,2.0,-33.0,-8.0,-4.0,-3.0,3.0
1701619630.473072,-33.0,17.0,-70.0,-21.0,-4.0,-1.0,1.0,-5.0
1701619630.473072,25.0,72.0,27.0,13.0,4.0,2.0,0.0,3.0
1701619630.473072,-16.0,28.0,-15.0,-10.0,-15.0,-6.0,-5.0,-2.0
1701619630.473072,26.0,36.0,15.0,4.0,-3.0,1.0,2.0,5.0
1701619630.4833503,-4.0,35.0,80.0,22.0,9.0,5.0,5.0,2.0
1701619630.4833503,4.0,44.0,-81.0,-24.0,1.0,-2.0,-3.0,-4.0
1701619630.4833503,-2.0,-40.0,-69.0,-3.0,-1.0,3.0,0.0,-3.0
1701619630.4833503,15.0,5.0,77.0,41.0,17.0,6.0,0.0,0.0
1701619630.5033433,-18.0,-61.0,-63.0,-24.0,-4.0,-5.0,-6.0,-5.0
1701619630.5033433,39.0,45.0,127.0,27.0,9.0,6.0,15.0,12.0
1701619630.5033433,-3.0,-68.0,-88.0,-19.0,-12.0,-8.0,-8.0,-9.0
1701619630.5033433,3.0,-48.0,-6.0,-14.0,-17.0,-9.0,-4.0,0.0
1701619630.5333703,-20.0,-20.0,-32.0,5.0,10.0,2.0,-4.0,-14.0
1701619630.5333703,11.0,-52.0,49.0,22.0,1.0,-2.0,-5.0,2.0
1701619630.5333703,-14.0,-28.0,-54.0,-15.0,-1.0,1.0,0.0,-2.0
1701619630.5333703,-6.0,-38.0,52.0,15.0,3.0,-1.0,0.0,2.0
1701619630.5333703,-12.0,25.0,30.0,-19.0,-12.0,-4.0,-3.0,1.0
1701619630.5333703,57.0,16.0,7.0,9.0,12.0,5.0,7.0,7.0
1701619630.5530715,-51.0,-23.0,-41.0,-13.0,4.0,-2.0,-7.0,-12.0
1701619630.5530715,-4.0,82.0,58.0,-25.0,-14.0,-5.0,-4.0,-3.0
1701619630.5630748,0.0,15.0,62.0,27.0,3.0,-4.0,0.0,-1.0
1701619630.5630748,22.0,-65.0,-121.0,-34.0,-15.0,-6.0,-5.0,-2.0
1701619630.5630748,62.0,69.0,24.0,26.0,8.0,5.0,5.0,8.0
1701619630.5630748,-83.0,50.0,10.0,-5.0,5.0,0.0,-1.0,-9.0
1701619630.5830731,20.0,-15.0,-2.0,20.0,4.0,1.0,-1.0,3.0
1701619630.5830731,-40.0,23.0,39.0,3.0,2.0,4.0,1.0,-2.0
1701619630.5830731,16.0,-6.0,34.0,-31.0,-20.0,-14.0,-9.0,-4.0
1701619630.5830731,4.0,-72.0,-109.0,22.0,3.0,0.0,-4.0,-4.0
1701619630.5934415,9.0,6.0,13.0,8.0,8.0,6.0,4.0,5.0
1701619630.5934415,0.0,-46.0,-109.0,-4.0,4.0,-1.0,-5.0,-4.0
1701619630.6130753,-12.0,54.0,104.0,14.0,7.0,2.0,4.0,4.0
1701619630.6130753,50.0,45.0,25.0,2.0,-5.0,-1.0,2.0,1.0
1701619630.6231098,-12.0,-54.0,46.0,16.0,1.0,-3.0,-3.0,-3.0
1701619630.6231098,55.0,19.0,-30.0,-6.0,-1.0,-1.0,1.0,8.0
1701619630.6231098,-41.0,78.0,93.0,27.0,8.0,3.0,-1.0,-1.0
1701619630.6231098,-46.0,-22.0,-75.0,-41.0,-13.0,-11.0,-12.0,-16.0
1701619630.6435032,-11.0,-44.0,-67.0,-7.0,-4.0,-2.0,0.0,-1.0
1701619630.6435032,-18.0,-60.0,50.0,-10.0,-9.0,-3.0,-3.0,-4.0
1701619630.6435032,49.0,-13.0,-48.0,-13.0,0.0,5.0,3.0,6.0
1701619630.6435032,22.0,6.0,69.0,31.0,12.0,6.0,6.0,7.0
1701619630.6534328,-3.0,-31.0,-11.0,-3.0,-8.0,-7.0,-2.0,-3.0
1701619630.6534328,-41.0,78.0,27.0,25.0,2.0,-3.0,-6.0,-5.0
1701619630.6730766,16.0,46.0,-19.0,-25.0,-8.0,-3.0,-4.0,-5.0
1701619630.6730766,-2.0,48.0,-18.0,-18.0,-4.0,8.0,7.0,12.0
1701619630.6831274,-24.0,24.0,-97.0,-18.0,4.0,-6.0,-7.0,-13.0
1701619630.6831274,20.0,17.0,46.0,7.0,0.0,1.0,2.0,7.0
1701619630.6831274,25.0,68.0,16.0,41.0,2.0,1.0,2.0,5.0
1701619630.6831274,-39.0,16.0,-25.0,-2.0,10.0,0.0,-2.0,-6.0
1701619630.7032924,50.0,48.0,52.0,3.0,1.0,6.0,6.0,8.0
1701619630.7032924,-12.0,15.0,44.0,-10.0,-4.0,-4.0,-4.0,-7.0
1701619630.7133417,-42.0,9.0,-31.0,4.0,0.0,-1.0,-1.0,-2.0
1701619630.7133417,-39.0,-24.0,13.0,-3.0,-5.0,-7.0,-2.0,-3.0
1701619630.7133417,-19.0,-58.0,-15.0,-12.0,-11.0,2.0,1.0,-3.0
1701619630.7133417,-7.0,-41.0,-54.0,7.0,11.0,3.0,-2.0,-3.0
1701619630.7530735,21.0,-16.0,2.0,-7.0,-4.0,-1.0,1.0,2.0
1701619630.7530735,1.0,-13.0,29.0,35.0,9.0,0.0,-1.0,-2.0
1701619630.7530735,-16.0,16.0,13.0,-52.0,-15.0,-7.0,-4.0,-2.0
1701619630.7530735,-4.0,-40.0,44.0,6.0,-5.0,0.0,2.0,0.0
1701619630.7530735,35.0,-91.0,-94.0,5.0,1.0,-1.0,2.0,5.0
1701619630.7530735,-20.0,12.0,23.0,21.0,-1.0,-1.0,-3.0,-7.0
1701619630.7632284,-1.0,38.0,-24.0,-12.0,12.0,6.0,2.0,2.0
1701619630.7632284,12.0,-13.0,-66.0,-21.0,2.0,1.0,1.0,1.0
1701619630.7632284,-33.0,37.0,18.0,-12.0,-9.0,-7.0,-7.0,-4.0
1701619630.7632284,60.0,34.0,68.0,26.0,0.0,0.0,-1.0,6.0
1701619630.7909899,17.0,75.0,25.0,1.0,-1.0,0.0,-5.0,-1.0
1701619630.7909899,7.0,25.0,-18.0,-7.0,-15.0,-9.0,-3.0,0.0
1701619630.7919898,11.0,34.0,30.0,-15.0,3.0,4.0,0.0,1.0
1701619630.7919898,-38.0,-80.0,4.0,-7.0,3.0,1.0,-1.0,-7.0
1701619630.8059611,11.0,-22.0,78.0,49.0,5.0,1.0,3.0,8.0
1701619630.8059611,-1.0,83.0,-103.0,0.0,4.0,0.0,0.0,-5.0
1701619630.8059611,-23.0,-55.0,-1.0,-11.0,0.0,-5.0,-5.0,-7.0
1701619630.8059611,33.0,31.0,-79.0,-30.0,-8.0,-5.0,0.0,6.0
1701619630.825962,-20.0,-30.0,29.0,-3.0,0.0,-1.0,-3.0,-10.0
1701619630.825962,-10.0,-27.0,51.0,25.0,-3.0,-2.0,-2.0,-1.0
1701619630.825962,22.0,-8.0,-7.0,-16.0,-16.0,-8.0,-5.0,-1.0
1701619630.825962,5.0,-33.0,13.0,34.0,19.0,5.0,2.0,-1.0
1701619630.8459918,-38.0,-48.0,-76.0,-37.0,-12.0,-7.0,-4.0,-5.0
1701619630.8459918,18.0,7.0,22.0,4.0,3.0,2.0,0.0,1.0
1701619630.8459918,-43.0,15.0,5.0,13.0,11.0,6.0,2.0,-4.0
1701619630.8459918,44.0,38.0,61.0,-10.0,-9.0,-5.0,1.0,4.0
1701619630.8659635,-18.0,-28.0,-67.0,-16.0,-6.0,-2.0,-7.0,-2.0
1701619630.8659635,-51.0,-38.0,19.0,1.0,7.0,3.0,1.0,0.0
1701619630.8659635,4.0,-102.0,-37.0,-8.0,-1.0,0.0,5.0,5.0
1701619630.8659635,62.0,82.0,25.0,15.0,-1.0,0.0,-4.0,1.0
1701619630.886269,-100.0,-87.0,-2.0,-13.0,-4.0,-6.0,-8.0,-14.0
1701619630.886269,0.0,19.0,25.0,1.0,-9.0,-1.0,-1.0,3.0
1701619630.886269,39.0,-27.0,60.0,33.0,17.0,8.0,8.0,9.0
1701619630.886269,-20.0,-11.0,-93.0,-49.0,-14.0,-6.0,-6.0,-9.0
1701619630.9259632,30.0,18.0,-9.0,-17.0,-11.0,-5.0,0.0,0.0
1701619630.9259632,37.0,40.0,8.0,8.0,19.0,5.0,-1.0,4.0
1701619630.9259632,-26.0,-27.0,33.0,30.0,-1.0,0.0,-1.0,-4.0
1701619630.9259632,12.0,17.0,-22.0,-18.0,2.0,1.0,-3.0,1.0
1701619630.9259632,5.0,-15.0,36.0,45.0,-4.0,-2.0,-1.0,-3.0
1701619630.9259632,28.0,-19.0,46.0,-19.0,-4.0,1.0,0.0,-2.0
1701619630.9259632,11.0,66.0,-41.0,13.0,1.0,-4.0,1.0,5.0
1701619630.9259632,-53.0,-103.0,-30.0,-6.0,-2.0,-5.0,-4.0,-5.0
1701619630.945958,55.0,97.0,16.0,15.0,13.0,5.0,5.0,10.0
1701619630.945958,-16.0,-7.0,-51.0,-44.0,-10.0,-2.0,1.0,1.0
1701619630.9559643,16.0,-11.0,69.0,-1.0,-4.0,2.0,-1.0,1.0
1701619630.9559643,-14.0,-35.0,-60.0,5.0,-2.0,-3.0,-3.0,-6.0
1701619630.9662724,-1.0,44.0,30.0,0.0,1.0,-2.0,-3.0,0.0
1701619630.9662724,1.0,-4.0,44.0,15.0,3.0,1.0,1.0,-5.0
1701619630.9662724,10.0,-36.0,-46.0,-28.0,-2.0,3.0,0.0,1.0
1701619630.9662724,4.0,35.0,35.0,17.0,-1.0,-1.0,-1.0,0.0
1701619630.9762208,27.0,-28.0,11.0,13.0,4.0,4.0,4.0,10.0
1701619630.9762208,-40.0,-44.0,-86.0,-1.0,-1.0,-4.0,-6.0,-14.0
1701619630.985965,14.0,-32.0,48.0,18.0,-15.0,-10.0,-7.0,-3.0
1701619630.985965,-23.0,50.0,-25.0,-30.0,12.0,1.0,1.0,0.0
1701619631.0159597,4.0,124.0,-48.0,-18.0,-4.0,-2.0,-1.0,-1.0
1701619631.0159597,48.0,-1.0,69.0,36.0,-7.0,1.0,2.0,7.0
1701619631.0159597,-74.0,-37.0,-16.0,-27.0,-6.0,-3.0,-5.0,-15.0
1701619631.0159597,21.0,-4.0,34.0,27.0,13.0,8.0,4.0,3.0
1701619631.0263314,33.0,40.0,72.0,5.0,1.0,-3.0,1.0,4.0
1701619631.0263314,23.0,-38.0,-35.0,7.0,-2.0,-3.0,-3.0,1.0
1701619631.0263314,25.0,27.0,-1.0,-16.0,-9.0,-4.0,0.0,-1.0
1701619631.0263314,-31.0,20.0,35.0,20.0,-6.0,-1.0,-6.0,-8.0
1701619631.036328,-6.0,-63.0,-61.0,-46.0,-11.0,-2.0,2.0,-1.0
1701619631.036328,-21.0,-4.0,42.0,8.0,4.0,5.0,4.0,-1.0
1701619631.0561912,5.0,12.0,-23.0,-1.0,6.0,-2.0,-3.0,-2.0
1701619631.0561912,9.0,-76.0,-34.0,-29.0,6.0,1.0,1.0,-1.0
1701619631.0659595,-23.0,-64.0,-5.0,18.0,-2.0,-4.0,-6.0,-7.0
1701619631.0659595,11.0,33.0,63.0,11.0,3.0,-2.0,0.0,-2.0
1701619631.0659595,-7.0,14.0,-19.0,-20.0,-4.0,-3.0,-2.0,-4.0
1701619631.0659595,0.0,-33.0,41.0,42.0,1.0,1.0,1.0,2.0
1701619631.086276,-28.0,-13.0,-88.0,-38.0,-7.0,-5.0,-5.0,-13.0
1701619631.086276,-6.0,6.0,33.0,-28.0,-8.0,0.0,-1.0,5.0
1701619631.086276,16.0,31.0,44.0,19.0,6.0,2.0,2.0,2.0
